{
  "AcquisitionMatrixPE": 104,
  "AcquisitionNumber": 1,
  "AcquisitionTime": "10:48:26.720000",
  "BandwidthPerPixelPhaseEncode": 17.17,
  "BaseResolution": 104,
  "BodyPartExamined": "BRAIN",
  "CoilString": "HC1-7;NC1_2",
  "ConsistencyInfo": "N4_VE11C_LATEST_20160120",
  "ConversionSoftware": "dcm2niix",
  "ConversionSoftwareVersion": "v1.0.20190902",
  "DerivedVendorReportedEchoSpacing": 0.000560011,
  "DeviceSerialNumber": "167006",
  "DwellTime": 2.1e-06,
  "EchoTime": 0.037,
  "EchoTrainLength": 104,
  "EffectiveEchoSpacing": 0.000560011,
  "FlipAngle": 52,
  "ImageComments": "Unaliased_MB4_PE3_LB",
  "ImageOrientationPatientDICOM": [0.996403, 0.0661001, 0.0530324, -0.0396713, 0.916808, -0.397352],
  "ImageType": [
    "ORIGINAL",
    "PRIMARY",
    "M",
    "MB",
    "ND",
    "MOSAIC"
],
  "ImagingFrequency": 123.259,
  "InPlanePhaseEncodingDirectionDICOM": "COL",
  "InstitutionAddress": "Chemin_Queen-Mary_4565_Montreal_District_CA_H3W_1W5",
  "InstitutionName": "IUGM",
  "InstitutionalDepartmentName": "Department",
  "MRAcquisitionType": "2D",
  "MagneticFieldStrength": 3,
  "Manufacturer": "Siemens",
  "ManufacturersModelName": "Prisma_fit",
  "Modality": "MR",
  "MultibandAccelerationFactor": 4,
  "PartialFourier": 1,
  "PatientPosition": "HFS",
  "PercentPhaseFOV": 100,
  "PhaseEncodingDirection": "j",
  "PhaseEncodingSteps": 104,
  "PhaseResolution": 1,
  "PixelBandwidth": 2290,
  "ProcedureStepDescription": "language_harrypotter",
  "ProtocolName": "func_task-harrypotter_run-7",
  "PulseSequenceDetails": "%CustomerSeq%_cmrr_mbep2d_bold",
  "ReceiveCoilActiveElements": "HC1-7;NC1,2",
  "ReceiveCoilName": "HeadNeck_64",
  "ReconMatrixPE": 104,
  "RepetitionTime": 1.49,
  "SAR": 0.037321,
  "ScanOptions": "FS",
  "ScanningSequence": "EP",
  "SequenceName": "epfid2d1_104",
  "SequenceVariant": "SK_SS",
  "SeriesDescription": "func_task-harrypotter_run-7",
  "SeriesNumber": 23,
  "ShimSetting": [645, -7173, -8867, 649, 118, 58, -20, -11],
  "SliceThickness": 2,
  "SliceTiming": [0, 0.7825, 0.0975, 0.8825, 0.195, 0.98, 0.2925, 1.0775, 0.3925, 1.175, 0.49, 1.2725, 0.5875, 1.3725, 0.685, 0, 0.7825, 0.0975, 0.8825, 0.195, 0.98, 0.2925, 1.0775, 0.3925, 1.175, 0.49, 1.2725, 0.5875, 1.3725, 0.685, 0, 0.7825, 0.0975, 0.8825, 0.195, 0.98, 0.2925, 1.0775, 0.3925, 1.175, 0.49, 1.2725, 0.5875, 1.3725, 0.685, 0, 0.7825, 0.0975, 0.8825, 0.195, 0.98, 0.2925, 1.0775, 0.3925, 1.175, 0.49, 1.2725, 0.5875, 1.3725, 0.685],
  "SoftwareVersions": "syngo_MR_E11",
  "SpacingBetweenSlices": 2,
  "StationName": "MRC35049",
  "TaskName": "harrypotter",
  "TotalReadoutTime": 0.0576811,
  "TxRefAmp": 243.242,
  "WipMemBlock": "0c3e0259-00e0-4f3e-8ae2-830aef8f07f5||Sequence: R016 ve11c/master r/e634e98; Dec 19 2017 11:00:25 by eja",
  "dcmmeta_affine": [
    [-1.9928053617477417, -0.07934268563985825, 0.14977100491523743, 106.76417541503906],
    [-0.1322001963853836, 1.8336169719696045, -0.7876368761062622, -49.40777587890625],
    [0.10606471449136734, 0.7947034239768982, 1.8322654962539673, -77.85126495361328],
    [0.0, 0.0, 0.0, 1.0]
],
  "dcmmeta_reorient_transform": [
    [0.0, -1.0, 0.0, 103.0],
    [1.0, 0.0, 0.0, 0.0],
    [0.0, 0.0, 1.0, 0.0],
    [0.0, 0.0, 0.0, 1.0]
],
  "dcmmeta_shape": [104, 104, 60, 536],
  "dcmmeta_slice_dim": 2,
  "dcmmeta_version": 0.6,
  "global": {
    "const": {
      "AcquisitionMatrix": [104, 0, 0, 104],
      "AngioFlag": "N",
      "BitsAllocated": 16,
      "BitsStored": 16,
      "BodyPartExamined": "BRAIN",
      "Columns": 832,
      "EchoNumbers": 1,
      "EchoTime": 37.0,
      "EchoTrainLength": 104,
      "FlipAngle": 52.0,
      "HighBit": 15,
      "ImageOrientationPatient": [0.99640270277278, 0.06610009771207, 0.05303235794828, -0.0396713426341, 0.91680849045945, -0.3973517036519],
      "ImagePositionPatient": [-795.09230603418, -855.0122260899, 254.66767107403],
      "ImageType": [
        "ORIGINAL",
        "PRIMARY",
        "M",
        "MB",
        "ND",
        "MOSAIC"
],
      "ImagedNucleus": "1H",
      "ImagingFrequency": 123.259027,
      "InPlanePhaseEncodingDirection": "COL",
      "MRAcquisitionType": "2D",
      "MagneticFieldStrength": 3.0,
      "Manufacturer": "SIEMENS",
      "ManufacturerModelName": "Prisma_fit",
      "Modality": "MR",
      "NumberOfAverages": 1.0,
      "NumberOfPhaseEncodingSteps": 104,
      "PercentPhaseFieldOfView": 100.0,
      "PercentSampling": 100.0,
      "PerformedProcedureStepStartTime": "090310.064000",
      "PhotometricInterpretation": "MONOCHROME2",
      "PixelBandwidth": 2290.0,
      "PixelRepresentation": 0,
      "PixelSpacing": [2.0, 2.0],
      "ProtocolName": "func_task-harrypotter_run-7",
      "RepetitionTime": 1490.0,
      "Rows": 832,
      "SAR": 0.03732099795508,
      "SamplesPerPixel": 1,
      "ScanOptions": "FS",
      "ScanningSequence": "EP",
      "SequenceName": "epfid2d1_104",
      "SequenceVariant": [
        "SK",
        "SS"
],
      "SeriesDescription": "func_task-harrypotter_run-7",
      "SeriesNumber": 23,
      "SeriesTime": "104946.612000",
      "SliceLocation": -43.869309236495,
      "SliceThickness": 2.0,
      "SmallestImagePixelValue": 0,
      "SoftwareVersions": "syngo MR E11",
      "SpacingBetweenSlices": 1.9999999827047,
      "SpecificCharacterSet": "ISO_IR 100",
      "StudyID": "1",
      "StudyTime": "090309.924000",
      "TransmitCoilName": "Body",
      "VariableFlipAngleFlag": "N",
      "WindowCenterWidthExplanation": "Algo1",
      "dBdt": 0.0},
    "slices": {}
  },
  "time": {
    "samples": {
      "AcquisitionNumber": [1, 2, 3, 4, 5, 6, 7, 8, 9, 10, 11, 12, 13, 14, 15, 16, 17, 18, 19, 20, 21, 22, 23, 24, 25, 26, 27, 28, 29, 30, 31, 32, 33, 34, 35, 36, 37, 38, 39, 40, 41, 42, 43, 44, 45, 46, 47, 48, 49, 50, 51, 52, 53, 54, 55, 56, 57, 58, 59, 60, 61, 62, 63, 64, 65, 66, 67, 68, 69, 70, 71, 72, 73, 74, 75, 76, 77, 78, 79, 80, 81, 82, 83, 84, 85, 86, 87, 88, 89, 90, 91, 92, 93, 94, 95, 96, 97, 98, 99, 100, 101, 102, 103, 104, 105, 106, 107, 108, 109, 110, 111, 112, 113, 114, 115, 116, 117, 118, 119, 120, 121, 122, 123, 124, 125, 126, 127, 128, 129, 130, 131, 132, 133, 134, 135, 136, 137, 138, 139, 140, 141, 142, 143, 144, 145, 146, 147, 148, 149, 150, 151, 152, 153, 154, 155, 156, 157, 158, 159, 160, 161, 162, 163, 164, 165, 166, 167, 168, 169, 170, 171, 172, 173, 174, 175, 176, 177, 178, 179, 180, 181, 182, 183, 184, 185, 186, 187, 188, 189, 190, 191, 192, 193, 194, 195, 196, 197, 198, 199, 200, 201, 202, 203, 204, 205, 206, 207, 208, 209, 210, 211, 212, 213, 214, 215, 216, 217, 218, 219, 220, 221, 222, 223, 224, 225, 226, 227, 228, 229, 230, 231, 232, 233, 234, 235, 236, 237, 238, 239, 240, 241, 242, 243, 244, 245, 246, 247, 248, 249, 250, 251, 252, 253, 254, 255, 256, 257, 258, 259, 260, 261, 262, 263, 264, 265, 266, 267, 268, 269, 270, 271, 272, 273, 274, 275, 276, 277, 278, 279, 280, 281, 282, 283, 284, 285, 286, 287, 288, 289, 290, 291, 292, 293, 294, 295, 296, 297, 298, 299, 300, 301, 302, 303, 304, 305, 306, 307, 308, 309, 310, 311, 312, 313, 314, 315, 316, 317, 318, 319, 320, 321, 322, 323, 324, 325, 326, 327, 328, 329, 330, 331, 332, 333, 334, 335, 336, 337, 338, 339, 340, 341, 342, 343, 344, 345, 346, 347, 348, 349, 350, 351, 352, 353, 354, 355, 356, 357, 358, 359, 360, 361, 362, 363, 364, 365, 366, 367, 368, 369, 370, 371, 372, 373, 374, 375, 376, 377, 378, 379, 380, 381, 382, 383, 384, 385, 386, 387, 388, 389, 390, 391, 392, 393, 394, 395, 396, 397, 398, 399, 400, 401, 402, 403, 404, 405, 406, 407, 408, 409, 410, 411, 412, 413, 414, 415, 416, 417, 418, 419, 420, 421, 422, 423, 424, 425, 426, 427, 428, 429, 430, 431, 432, 433, 434, 435, 436, 437, 438, 439, 440, 441, 442, 443, 444, 445, 446, 447, 448, 449, 450, 451, 452, 453, 454, 455, 456, 457, 458, 459, 460, 461, 462, 463, 464, 465, 466, 467, 468, 469, 470, 471, 472, 473, 474, 475, 476, 477, 478, 479, 480, 481, 482, 483, 484, 485, 486, 487, 488, 489, 490, 491, 492, 493, 494, 495, 496, 497, 498, 499, 500, 501, 502, 503, 504, 505, 506, 507, 508, 509, 510, 511, 512, 513, 514, 515, 516, 517, 518, 519, 520, 521, 522, 523, 524, 525, 526, 527, 528, 529, 530, 531, 532, 533, 534, 535, 536],
      "AcquisitionTime": ["104826.720000", "104828.210000", "104829.700000", "104831.190000", "104832.680000", "104834.170000", "104835.660000", "104837.150000", "104838.640000", "104840.130000", "104841.620000", "104843.110000", "104844.600000", "104846.090000", "104847.580000", "104849.070000", "104850.560000", "104852.050000", "104853.540000", "104855.030000", "104856.520000", "104858.010000", "104859.500000", "104900.990000", "104902.480000", "104903.970000", "104905.460000", "104906.950000", "104908.440000", "104909.930000", "104911.420000", "104912.910000", "104914.400000", "104915.890000", "104917.380000", "104918.870000", "104920.360000", "104921.850000", "104923.340000", "104924.830000", "104926.320000", "104927.810000", "104929.300000", "104930.790000", "104932.280000", "104933.770000", "104935.260000", "104936.750000", "104938.240000", "104939.730000", "104941.220000", "104942.710000", "104944.200000", "104945.690000", "104947.180000", "104948.670000", "104950.160000", "104951.650000", "104953.140000", "104954.630000", "104956.120000", "104957.610000", "104959.100000", "105000.590000", "105002.080000", "105003.570000", "105005.060000", "105006.550000", "105008.040000", "105009.530000", "105011.020000", "105012.510000", "105014.000000", "105015.490000", "105016.980000", "105018.470000", "105019.960000", "105021.450000", "105022.940000", "105024.430000", "105025.920000", "105027.410000", "105028.900000", "105030.390000", "105031.880000", "105033.370000", "105034.860000", "105036.350000", "105037.840000", "105039.330000", "105040.820000", "105042.310000", "105043.800000", "105045.290000", "105046.780000", "105048.270000", "105049.760000", "105051.250000", "105052.740000", "105054.230000", "105055.720000", "105057.210000", "105058.700000", "105100.190000", "105101.680000", "105103.170000", "105104.660000", "105106.150000", "105107.640000", "105109.130000", "105110.620000", "105112.110000", "105113.600000", "105115.090000", "105116.580000", "105118.070000", "105119.560000", "105121.050000", "105122.540000", "105124.030000", "105125.520000", "105127.010000", "105128.500000", "105129.990000", "105131.480000", "105132.970000", "105134.460000", "105135.950000", "105137.440000", "105138.930000", "105140.420000", "105141.910000", "105143.400000", "105144.890000", "105146.380000", "105147.870000", "105149.360000", "105150.850000", "105152.340000", "105153.830000", "105155.320000", "105156.810000", "105158.300000", "105159.790000", "105201.280000", "105202.770000", "105204.260000", "105205.750000", "105207.240000", "105208.730000", "105210.220000", "105211.710000", "105213.200000", "105214.690000", "105216.180000", "105217.670000", "105219.160000", "105220.650000", "105222.140000", "105223.630000", "105225.120000", "105226.610000", "105228.100000", "105229.590000", "105231.080000", "105232.570000", "105234.060000", "105235.550000", "105237.040000", "105238.530000", "105240.020000", "105241.510000", "105243.000000", "105244.490000", "105245.980000", "105247.470000", "105248.960000", "105250.450000", "105251.940000", "105253.430000", "105254.920000", "105256.410000", "105257.900000", "105259.390000", "105300.880000", "105302.370000", "105303.860000", "105305.350000", "105306.840000", "105308.330000", "105309.820000", "105311.310000", "105312.800000", "105314.290000", "105315.780000", "105317.270000", "105318.760000", "105320.250000", "105321.740000", "105323.230000", "105324.720000", "105326.210000", "105327.700000", "105329.190000", "105330.680000", "105332.170000", "105333.660000", "105335.150000", "105336.640000", "105338.130000", "105339.620000", "105341.110000", "105342.600000", "105344.090000", "105345.580000", "105347.070000", "105348.560000", "105350.050000", "105351.540000", "105353.030000", "105354.520000", "105356.010000", "105357.500000", "105358.990000", "105400.480000", "105401.970000", "105403.460000", "105404.950000", "105406.440000", "105407.930000", "105409.420000", "105410.910000", "105412.400000", "105413.890000", "105415.380000", "105416.870000", "105418.360000", "105419.850000", "105421.340000", "105422.830000", "105424.320000", "105425.810000", "105427.300000", "105428.790000", "105430.280000", "105431.770000", "105433.260000", "105434.750000", "105436.240000", "105437.730000", "105439.220000", "105440.710000", "105442.200000", "105443.690000", "105445.180000", "105446.670000", "105448.160000", "105449.650000", "105451.140000", "105452.630000", "105454.120000", "105455.610000", "105457.100000", "105458.590000", "105500.080000", "105501.570000", "105503.060000", "105504.550000", "105506.040000", "105507.530000", "105509.020000", "105510.510000", "105512.000000", "105513.490000", "105514.980000", "105516.470000", "105517.960000", "105519.450000", "105520.940000", "105522.430000", "105523.920000", "105525.410000", "105526.900000", "105528.390000", "105529.880000", "105531.370000", "105532.860000", "105534.350000", "105535.840000", "105537.330000", "105538.820000", "105540.310000", "105541.800000", "105543.290000", "105544.780000", "105546.270000", "105547.760000", "105549.250000", "105550.740000", "105552.230000", "105553.720000", "105555.210000", "105556.700000", "105558.190000", "105559.680000", "105601.170000", "105602.660000", "105604.150000", "105605.640000", "105607.130000", "105608.620000", "105610.110000", "105611.600000", "105613.090000", "105614.580000", "105616.070000", "105617.560000", "105619.050000", "105620.540000", "105622.030000", "105623.520000", "105625.010000", "105626.500000", "105627.990000", "105629.480000", "105630.970000", "105632.460000", "105633.950000", "105635.440000", "105636.930000", "105638.420000", "105639.910000", "105641.400000", "105642.890000", "105644.380000", "105645.870000", "105647.360000", "105648.850000", "105650.340000", "105651.830000", "105653.320000", "105654.810000", "105656.300000", "105657.790000", "105659.280000", "105700.770000", "105702.260000", "105703.750000", "105705.240000", "105706.730000", "105708.220000", "105709.710000", "105711.200000", "105712.690000", "105714.180000", "105715.670000", "105717.160000", "105718.650000", "105720.140000", "105721.630000", "105723.120000", "105724.610000", "105726.100000", "105727.590000", "105729.080000", "105730.570000", "105732.060000", "105733.550000", "105735.040000", "105736.530000", "105738.020000", "105739.510000", "105741.000000", "105742.490000", "105743.980000", "105745.470000", "105746.960000", "105748.450000", "105749.940000", "105751.430000", "105752.920000", "105754.410000", "105755.900000", "105757.390000", "105758.880000", "105800.370000", "105801.860000", "105803.350000", "105804.840000", "105806.330000", "105807.820000", "105809.310000", "105810.800000", "105812.290000", "105813.780000", "105815.270000", "105816.760000", "105818.250000", "105819.740000", "105821.230000", "105822.720000", "105824.210000", "105825.700000", "105827.190000", "105828.680000", "105830.170000", "105831.660000", "105833.150000", "105834.640000", "105836.130000", "105837.620000", "105839.110000", "105840.600000", "105842.090000", "105843.580000", "105845.070000", "105846.560000", "105848.050000", "105849.540000", "105851.030000", "105852.520000", "105854.010000", "105855.500000", "105856.990000", "105858.480000", "105859.970000", "105901.460000", "105902.950000", "105904.440000", "105905.930000", "105907.420000", "105908.910000", "105910.400000", "105911.890000", "105913.380000", "105914.870000", "105916.360000", "105917.850000", "105919.340000", "105920.830000", "105922.320000", "105923.810000", "105925.300000", "105926.790000", "105928.280000", "105929.770000", "105931.260000", "105932.750000", "105934.240000", "105935.730000", "105937.220000", "105938.710000", "105940.200000", "105941.690000", "105943.180000", "105944.670000", "105946.160000", "105947.650000", "105949.140000", "105950.630000", "105952.120000", "105953.610000", "105955.100000", "105956.590000", "105958.080000", "105959.570000", "110001.060000", "110002.550000", "110004.040000", "110005.530000", "110007.020000", "110008.510000", "110010.000000", "110011.490000", "110012.980000", "110014.470000", "110015.960000", "110017.450000", "110018.940000", "110020.430000", "110021.920000", "110023.410000", "110024.900000", "110026.390000", "110027.880000", "110029.370000", "110030.860000", "110032.350000", "110033.840000", "110035.330000", "110036.820000", "110038.310000", "110039.800000", "110041.290000", "110042.780000", "110044.270000", "110045.760000", "110047.250000", "110048.740000", "110050.230000", "110051.720000", "110053.210000", "110054.700000", "110056.190000", "110057.680000", "110059.170000", "110100.660000", "110102.150000", "110103.640000", "110105.130000", "110106.620000", "110108.110000", "110109.600000", "110111.090000", "110112.580000", "110114.070000", "110115.560000", "110117.050000", "110118.540000", "110120.030000", "110121.520000", "110123.010000", "110124.500000", "110125.990000", "110127.480000", "110128.970000", "110130.460000", "110131.950000", "110133.440000", "110134.930000", "110136.420000", "110137.910000", "110139.400000", "110140.890000", "110142.380000", "110143.870000"],
      "ContentTime": ["104946.614000", "104946.618000", "104946.621000", "104946.624000", "104946.631000", "104946.634000", "104946.636000", "104946.639000", "104946.642000", "104946.645000", "104946.648000", "104946.651000", "104946.654000", "104946.657000", "104946.664000", "104946.667000", "104946.670000", "104946.673000", "104946.676000", "104946.679000", "104946.682000", "104946.685000", "104946.688000", "104946.691000", "104946.694000", "105006.583000", "105006.587000", "105006.590000", "105006.593000", "105006.596000", "105006.599000", "105006.601000", "105006.604000", "105006.608000", "105006.620000", "105006.623000", "105006.626000", "105006.629000", "105006.632000", "105006.635000", "105006.638000", "105006.641000", "105006.644000", "105006.647000", "105006.650000", "105026.577000", "105026.580000", "105026.583000", "105026.586000", "105026.589000", "105026.592000", "105026.594000", "105026.598000", "105026.601000", "105026.604000", "105026.607000", "105026.610000", "105026.612000", "105026.615000", "105026.618000", "105026.621000", "105026.631000", "105026.634000", "105026.637000", "105026.640000", "105046.577000", "105046.580000", "105046.583000", "105046.586000", "105046.589000", "105046.592000", "105046.606000", "105046.609000", "105046.612000", "105046.615000", "105046.618000", "105046.621000", "105046.624000", "105046.627000", "105046.630000", "105046.633000", "105046.637000", "105046.641000", "105046.644000", "105046.648000", "105106.577000", "105106.580000", "105106.583000", "105106.586000", "105106.589000", "105106.592000", "105106.601000", "105106.604000", "105106.607000", "105106.610000", "105106.613000", "105106.615000", "105106.618000", "105106.621000", "105106.624000", "105106.627000", "105106.630000", "105106.633000", "105106.636000", "105106.639000", "105106.642000", "105146.578000", "105146.581000", "105146.584000", "105146.587000", "105146.590000", "105146.593000", "105146.596000", "105146.599000", "105146.602000", "105146.605000", "105146.608000", "105146.611000", "105146.614000", "105146.617000", "105146.620000", "105146.623000", "105146.626000", "105146.629000", "105146.632000", "105146.646000", "105146.649000", "105146.652000", "105146.655000", "105146.658000", "105146.661000", "105146.664000", "105146.667000", "105146.670000", "105226.577000", "105226.580000", "105226.583000", "105226.586000", "105226.589000", "105226.592000", "105226.595000", "105226.598000", "105226.601000", "105226.604000", "105226.607000", "105226.610000", "105226.613000", "105226.616000", "105226.619000", "105226.621000", "105226.625000", "105226.628000", "105226.630000", "105226.633000", "105226.636000", "105226.639000", "105226.642000", "105226.645000", "105226.648000", "105226.651000", "105306.577000", "105306.580000", "105306.583000", "105306.586000", "105306.589000", "105306.592000", "105306.595000", "105306.598000", "105306.601000", "105306.604000", "105306.607000", "105306.610000", "105306.613000", "105306.616000", "105306.619000", "105306.622000", "105306.625000", "105306.627000", "105306.630000", "105306.633000", "105306.636000", "105306.639000", "105306.642000", "105306.645000", "105306.648000", "105306.651000", "105306.654000", "105346.577000", "105346.580000", "105346.583000", "105346.586000", "105346.589000", "105346.592000", "105346.595000", "105346.598000", "105346.601000", "105346.604000", "105346.606000", "105346.610000", "105346.612000", "105346.616000", "105346.619000", "105346.622000", "105346.624000", "105346.627000", "105346.630000", "105346.633000", "105346.636000", "105346.639000", "105346.642000", "105346.645000", "105346.648000", "105346.651000", "105346.654000", "105426.577000", "105426.580000", "105426.583000", "105426.586000", "105426.589000", "105426.592000", "105426.595000", "105426.598000", "105426.601000", "105426.604000", "105426.607000", "105426.610000", "105426.613000", "105426.632000", "105426.635000", "105426.638000", "105426.641000", "105426.644000", "105426.647000", "105426.649000", "105426.652000", "105426.655000", "105426.658000", "105426.661000", "105426.664000", "105426.667000", "105426.670000", "105506.577000", "105506.580000", "105506.583000", "105506.586000", "105506.589000", "105506.592000", "105506.595000", "105506.598000", "105506.601000", "105506.604000", "105506.607000", "105506.610000", "105506.613000", "105506.616000", "105506.619000", "105506.622000", "105506.625000", "105506.628000", "105506.631000", "105506.634000", "105506.637000", "105506.640000", "105506.643000", "105506.645000", "105506.648000", "105506.651000", "105506.654000", "105546.577000", "105546.580000", "105546.583000", "105546.586000", "105546.589000", "105546.592000", "105546.595000", "105546.598000", "105546.601000", "105546.604000", "105546.607000", "105546.610000", "105546.613000", "105546.616000", "105546.619000", "105546.622000", "105546.625000", "105546.628000", "105546.631000", "105546.634000", "105546.637000", "105546.639000", "105546.642000", "105546.645000", "105546.648000", "105546.651000", "105546.654000", "105626.578000", "105626.581000", "105626.584000", "105626.587000", "105626.590000", "105626.593000", "105626.596000", "105626.599000", "105626.602000", "105626.605000", "105626.615000", "105626.618000", "105626.621000", "105626.625000", "105626.627000", "105626.630000", "105626.633000", "105626.636000", "105626.639000", "105626.642000", "105626.645000", "105626.648000", "105626.651000", "105626.654000", "105626.657000", "105626.660000", "105706.577000", "105706.584000", "105706.586000", "105706.589000", "105706.592000", "105706.595000", "105706.598000", "105706.601000", "105706.604000", "105706.607000", "105706.610000", "105706.613000", "105706.616000", "105706.619000", "105706.622000", "105706.625000", "105706.628000", "105706.631000", "105706.634000", "105706.637000", "105706.640000", "105706.643000", "105706.646000", "105706.649000", "105706.652000", "105706.655000", "105706.658000", "105746.577000", "105746.581000", "105746.584000", "105746.587000", "105746.590000", "105746.593000", "105746.603000", "105746.606000", "105746.609000", "105746.612000", "105746.615000", "105746.618000", "105746.621000", "105746.624000", "105746.627000", "105746.630000", "105746.633000", "105746.636000", "105746.639000", "105746.642000", "105746.645000", "105746.648000", "105746.651000", "105746.654000", "105746.657000", "105746.660000", "105746.663000", "105826.577000", "105826.580000", "105826.583000", "105826.586000", "105826.589000", "105826.592000", "105826.595000", "105826.598000", "105826.601000", "105826.604000", "105826.607000", "105826.610000", "105826.613000", "105826.616000", "105826.619000", "105826.622000", "105826.625000", "105826.628000", "105826.630000", "105826.633000", "105826.636000", "105826.639000", "105826.642000", "105826.645000", "105826.648000", "105826.672000", "105826.675000", "105906.577000", "105906.580000", "105906.583000", "105906.586000", "105906.589000", "105906.592000", "105906.595000", "105906.598000", "105906.601000", "105906.604000", "105906.607000", "105906.610000", "105906.613000", "105906.632000", "105906.635000", "105906.638000", "105906.641000", "105906.644000", "105906.647000", "105906.650000", "105906.652000", "105906.655000", "105906.658000", "105906.661000", "105906.664000", "105906.667000", "105906.670000", "105946.577000", "105946.580000", "105946.583000", "105946.593000", "105946.596000", "105946.599000", "105946.602000", "105946.605000", "105946.607000", "105946.611000", "105946.613000", "105946.616000", "105946.619000", "105946.623000", "105946.626000", "105946.628000", "105946.631000", "105946.634000", "105946.637000", "105946.640000", "105946.643000", "105946.646000", "105946.649000", "105946.652000", "105946.655000", "105946.658000", "105946.661000", "110026.577000", "110026.580000", "110026.583000", "110026.586000", "110026.589000", "110026.593000", "110026.595000", "110026.598000", "110026.602000", "110026.605000", "110026.608000", "110026.610000", "110026.614000", "110026.617000", "110026.620000", "110026.623000", "110026.626000", "110026.628000", "110026.631000", "110026.634000", "110026.637000", "110026.640000", "110026.643000", "110026.646000", "110026.649000", "110026.652000", "110106.577000", "110106.580000", "110106.583000", "110106.586000", "110106.589000", "110106.592000", "110106.595000", "110106.598000", "110106.601000", "110106.604000", "110106.607000", "110106.610000", "110106.613000", "110106.615000", "110106.619000", "110106.622000", "110106.625000", "110106.627000", "110106.631000", "110106.634000", "110106.636000", "110106.639000", "110106.643000", "110106.645000", "110106.648000", "110106.651000", "110106.654000", "110145.592000", "110145.596000", "110145.599000", "110145.602000", "110145.605000", "110145.608000", "110145.611000", "110145.614000", "110145.617000", "110145.620000", "110145.623000", "110145.626000", "110145.628000", "110145.632000", "110145.635000", "110145.637000", "110145.640000", "110145.644000", "110145.646000", "110145.649000", "110145.652000", "110145.655000", "110145.658000", "110145.661000", "110145.664000", "110145.667000", "110145.670000"],
