{
  "AcquisitionMatrixPE": 104,
  "AcquisitionNumber": 1,
  "AcquisitionTime": "10:36:11.317500",
  "BandwidthPerPixelPhaseEncode": 17.17,
  "BaseResolution": 104,
  "BodyPartExamined": "BRAIN",
  "CoilString": "HC1-7;NC1_2",
  "ConsistencyInfo": "N4_VE11C_LATEST_20160120",
  "ConversionSoftware": "dcm2niix",
  "ConversionSoftwareVersion": "v1.0.20190902",
  "DerivedVendorReportedEchoSpacing": 0.000560011,
  "DeviceSerialNumber": "167006",
  "DwellTime": 2.1e-06,
  "EchoTime": 0.037,
  "EchoTrainLength": 104,
  "EffectiveEchoSpacing": 0.000560011,
  "FlipAngle": 52,
  "ImageComments": "Unaliased_MB4_PE3_LB",
  "ImageOrientationPatientDICOM": [0.996403, 0.0661001, 0.0530324, -0.0396713, 0.916808, -0.397352],
  "ImageType": [
    "ORIGINAL",
    "PRIMARY",
    "M",
    "MB",
    "ND",
    "MOSAIC"
],
  "ImagingFrequency": 123.259,
  "InPlanePhaseEncodingDirectionDICOM": "COL",
  "InstitutionAddress": "Chemin_Queen-Mary_4565_Montreal_District_CA_H3W_1W5",
  "InstitutionName": "IUGM",
  "InstitutionalDepartmentName": "Department",
  "MRAcquisitionType": "2D",
  "MagneticFieldStrength": 3,
  "Manufacturer": "Siemens",
  "ManufacturersModelName": "Prisma_fit",
  "Modality": "MR",
  "MultibandAccelerationFactor": 4,
  "PartialFourier": 1,
  "PatientPosition": "HFS",
  "PercentPhaseFOV": 100,
  "PhaseEncodingDirection": "j",
  "PhaseEncodingSteps": 104,
  "PhaseResolution": 1,
  "PixelBandwidth": 2290,
  "ProcedureStepDescription": "language_harrypotter",
  "ProtocolName": "func_task-harrypotter_run-6",
  "PulseSequenceDetails": "%CustomerSeq%_cmrr_mbep2d_bold",
  "ReceiveCoilActiveElements": "HC1-7;NC1,2",
  "ReceiveCoilName": "HeadNeck_64",
  "ReconMatrixPE": 104,
  "RepetitionTime": 1.49,
  "SAR": 0.0372958,
  "ScanOptions": "FS",
  "ScanningSequence": "EP",
  "SequenceName": "epfid2d1_104",
  "SequenceVariant": "SK_SS",
  "SeriesDescription": "func_task-harrypotter_run-6",
  "SeriesNumber": 21,
  "ShimSetting": [645, -7173, -8867, 649, 118, 58, -20, -11],
  "SliceThickness": 2,
  "SliceTiming": [0, 0.7825, 0.0975, 0.88, 0.195, 0.98, 0.2925, 1.0775, 0.39, 1.175, 0.49, 1.2725, 0.5875, 1.37, 0.685, 0, 0.7825, 0.0975, 0.88, 0.195, 0.98, 0.2925, 1.0775, 0.39, 1.175, 0.49, 1.2725, 0.5875, 1.37, 0.685, 0, 0.7825, 0.0975, 0.88, 0.195, 0.98, 0.2925, 1.0775, 0.39, 1.175, 0.49, 1.2725, 0.5875, 1.37, 0.685, 0, 0.7825, 0.0975, 0.88, 0.195, 0.98, 0.2925, 1.0775, 0.39, 1.175, 0.49, 1.2725, 0.5875, 1.37, 0.685],
  "SoftwareVersions": "syngo_MR_E11",
  "SpacingBetweenSlices": 2,
  "StationName": "MRC35049",
  "TaskName": "harrypotter",
  "TotalReadoutTime": 0.0576811,
  "TxRefAmp": 243.242,
  "WipMemBlock": "fcf3e29f-bd03-46b5-8033-3cca85bf0a7f||Sequence: R016 ve11c/master r/e634e98; Dec 19 2017 11:00:25 by eja",
  "dcmmeta_affine": [
    [-1.9928053617477417, -0.07934268563985825, 0.14977100491523743, 106.76417541503906],
    [-0.1322001963853836, 1.8336169719696045, -0.7876368761062622, -49.40777587890625],
    [0.10606471449136734, 0.7947034239768982, 1.8322654962539673, -77.85126495361328],
    [0.0, 0.0, 0.0, 1.0]
],
  "dcmmeta_reorient_transform": [
    [0.0, -1.0, 0.0, 103.0],
    [1.0, 0.0, 0.0, 0.0],
    [0.0, 0.0, 1.0, 0.0],
    [0.0, 0.0, 0.0, 1.0]
],
  "dcmmeta_shape": [104, 104, 60, 453],
  "dcmmeta_slice_dim": 2,
  "dcmmeta_version": 0.6,
  "global": {
    "const": {
      "AcquisitionMatrix": [104, 0, 0, 104],
      "AngioFlag": "N",
      "BitsAllocated": 16,
      "BitsStored": 16,
      "BodyPartExamined": "BRAIN",
      "Columns": 832,
      "EchoNumbers": 1,
      "EchoTime": 37.0,
      "EchoTrainLength": 104,
      "FlipAngle": 52.0,
      "HighBit": 15,
      "ImageOrientationPatient": [0.99640270277278, 0.06610009771207, 0.05303235794828, -0.0396713426341, 0.91680849045945, -0.3973517036519],
      "ImagePositionPatient": [-795.09230603418, -855.0122260899, 254.66767107403],
      "ImageType": [
        "ORIGINAL",
        "PRIMARY",
        "M",
        "MB",
        "ND",
        "MOSAIC"
],
      "ImagedNucleus": "1H",
      "ImagingFrequency": 123.259028,
      "InPlanePhaseEncodingDirection": "COL",
      "MRAcquisitionType": "2D",
      "MagneticFieldStrength": 3.0,
      "Manufacturer": "SIEMENS",
      "ManufacturerModelName": "Prisma_fit",
      "Modality": "MR",
      "NumberOfAverages": 1.0,
      "NumberOfPhaseEncodingSteps": 104,
      "PercentPhaseFieldOfView": 100.0,
      "PercentSampling": 100.0,
      "PerformedProcedureStepStartTime": "090310.064000",
      "PhotometricInterpretation": "MONOCHROME2",
      "PixelBandwidth": 2290.0,
      "PixelRepresentation": 0,
      "PixelSpacing": [2.0, 2.0],
      "ProtocolName": "func_task-harrypotter_run-6",
      "RepetitionTime": 1490.0,
      "Rows": 832,
      "SAR": 0.03729577718346,
      "SamplesPerPixel": 1,
      "ScanOptions": "FS",
      "ScanningSequence": "EP",
      "SequenceName": "epfid2d1_104",
      "SequenceVariant": [
        "SK",
        "SS"
],
      "SeriesDescription": "func_task-harrypotter_run-6",
      "SeriesNumber": 21,
      "SeriesTime": "103718.247000",
      "SliceLocation": -43.869309236495,
      "SliceThickness": 2.0,
      "SmallestImagePixelValue": 0,
      "SoftwareVersions": "syngo MR E11",
      "SpacingBetweenSlices": 1.9999999827047,
      "SpecificCharacterSet": "ISO_IR 100",
      "StudyID": "1",
      "StudyTime": "090309.924000",
      "TransmitCoilName": "Body",
      "VariableFlipAngleFlag": "N",
      "WindowCenterWidthExplanation": "Algo1",
      "dBdt": 0.0},
    "slices": {}
  },
  "time": {
    "samples": {
      "AcquisitionNumber": [1, 2, 3, 4, 5, 6, 7, 8, 9, 10, 11, 12, 13, 14, 15, 16, 17, 18, 19, 20, 21, 22, 23, 24, 25, 26, 27, 28, 29, 30, 31, 32, 33, 34, 35, 36, 37, 38, 39, 40, 41, 42, 43, 44, 45, 46, 47, 48, 49, 50, 51, 52, 53, 54, 55, 56, 57, 58, 59, 60, 61, 62, 63, 64, 65, 66, 67, 68, 69, 70, 71, 72, 73, 74, 75, 76, 77, 78, 79, 80, 81, 82, 83, 84, 85, 86, 87, 88, 89, 90, 91, 92, 93, 94, 95, 96, 97, 98, 99, 100, 101, 102, 103, 104, 105, 106, 107, 108, 109, 110, 111, 112, 113, 114, 115, 116, 117, 118, 119, 120, 121, 122, 123, 124, 125, 126, 127, 128, 129, 130, 131, 132, 133, 134, 135, 136, 137, 138, 139, 140, 141, 142, 143, 144, 145, 146, 147, 148, 149, 150, 151, 152, 153, 154, 155, 156, 157, 158, 159, 160, 161, 162, 163, 164, 165, 166, 167, 168, 169, 170, 171, 172, 173, 174, 175, 176, 177, 178, 179, 180, 181, 182, 183, 184, 185, 186, 187, 188, 189, 190, 191, 192, 193, 194, 195, 196, 197, 198, 199, 200, 201, 202, 203, 204, 205, 206, 207, 208, 209, 210, 211, 212, 213, 214, 215, 216, 217, 218, 219, 220, 221, 222, 223, 224, 225, 226, 227, 228, 229, 230, 231, 232, 233, 234, 235, 236, 237, 238, 239, 240, 241, 242, 243, 244, 245, 246, 247, 248, 249, 250, 251, 252, 253, 254, 255, 256, 257, 258, 259, 260, 261, 262, 263, 264, 265, 266, 267, 268, 269, 270, 271, 272, 273, 274, 275, 276, 277, 278, 279, 280, 281, 282, 283, 284, 285, 286, 287, 288, 289, 290, 291, 292, 293, 294, 295, 296, 297, 298, 299, 300, 301, 302, 303, 304, 305, 306, 307, 308, 309, 310, 311, 312, 313, 314, 315, 316, 317, 318, 319, 320, 321, 322, 323, 324, 325, 326, 327, 328, 329, 330, 331, 332, 333, 334, 335, 336, 337, 338, 339, 340, 341, 342, 343, 344, 345, 346, 347, 348, 349, 350, 351, 352, 353, 354, 355, 356, 357, 358, 359, 360, 361, 362, 363, 364, 365, 366, 367, 368, 369, 370, 371, 372, 373, 374, 375, 376, 377, 378, 379, 380, 381, 382, 383, 384, 385, 386, 387, 388, 389, 390, 391, 392, 393, 394, 395, 396, 397, 398, 399, 400, 401, 402, 403, 404, 405, 406, 407, 408, 409, 410, 411, 412, 413, 414, 415, 416, 417, 418, 419, 420, 421, 422, 423, 424, 425, 426, 427, 428, 429, 430, 431, 432, 433, 434, 435, 436, 437, 438, 439, 440, 441, 442, 443, 444, 445, 446, 447, 448, 449, 450, 451, 452, 453],
      "AcquisitionTime": ["103611.317500", "103612.807500", "103614.297500", "103615.787500", "103617.277500", "103618.767500", "103620.257500", "103621.747500", "103623.237500", "103624.727500", "103626.217500", "103627.707500", "103629.197500", "103630.687500", "103632.177500", "103633.667500", "103635.157500", "103636.647500", "103638.137500", "103639.627500", "103641.117500", "103642.607500", "103644.097500", "103645.587500", "103647.077500", "103648.567500", "103650.057500", "103651.547500", "103653.037500", "103654.527500", "103656.017500", "103657.507500", "103658.997500", "103700.487500", "103701.977500", "103703.467500", "103704.957500", "103706.447500", "103707.937500", "103709.427500", "103710.917500", "103712.407500", "103713.897500", "103715.387500", "103716.877500", "103718.367500", "103719.857500", "103721.347500", "103722.837500", "103724.327500", "103725.817500", "103727.307500", "103728.797500", "103730.287500", "103731.777500", "103733.267500", "103734.757500", "103736.247500", "103737.737500", "103739.227500", "103740.717500", "103742.207500", "103743.697500", "103745.187500", "103746.677500", "103748.167500", "103749.657500", "103751.147500", "103752.637500", "103754.127500", "103755.617500", "103757.107500", "103758.597500", "103800.087500", "103801.577500", "103803.067500", "103804.557500", "103806.047500", "103807.537500", "103809.027500", "103810.517500", "103812.007500", "103813.497500", "103814.987500", "103816.477500", "103817.967500", "103819.457500", "103820.947500", "103822.437500", "103823.927500", "103825.417500", "103826.907500", "103828.397500", "103829.887500", "103831.377500", "103832.867500", "103834.357500", "103835.847500", "103837.337500", "103838.827500", "103840.317500", "103841.807500", "103843.297500", "103844.787500", "103846.277500", "103847.767500", "103849.257500", "103850.747500", "103852.237500", "103853.727500", "103855.217500", "103856.707500", "103858.197500", "103859.687500", "103901.177500", "103902.667500", "103904.157500", "103905.647500", "103907.137500", "103908.627500", "103910.117500", "103911.607500", "103913.097500", "103914.587500", "103916.077500", "103917.567500", "103919.057500", "103920.547500", "103922.037500", "103923.527500", "103925.017500", "103926.507500", "103927.997500", "103929.487500", "103930.977500", "103932.467500", "103933.957500", "103935.447500", "103936.937500", "103938.427500", "103939.917500", "103941.407500", "103942.897500", "103944.387500", "103945.877500", "103947.367500", "103948.857500", "103950.347500", "103951.837500", "103953.327500", "103954.817500", "103956.307500", "103957.797500", "103959.287500", "104000.777500", "104002.267500", "104003.757500", "104005.247500", "104006.737500", "104008.227500", "104009.717500", "104011.207500", "104012.697500", "104014.187500", "104015.677500", "104017.167500", "104018.657500", "104020.147500", "104021.637500", "104023.127500", "104024.617500", "104026.107500", "104027.597500", "104029.087500", "104030.577500", "104032.067500", "104033.557500", "104035.047500", "104036.537500", "104038.027500", "104039.517500", "104041.007500", "104042.497500", "104043.987500", "104045.477500", "104046.967500", "104048.457500", "104049.947500", "104051.437500", "104052.927500", "104054.417500", "104055.907500", "104057.397500", "104058.887500", "104100.377500", "104101.867500", "104103.357500", "104104.847500", "104106.337500", "104107.827500", "104109.317500", "104110.807500", "104112.297500", "104113.787500", "104115.277500", "104116.767500", "104118.257500", "104119.747500", "104121.237500", "104122.727500", "104124.217500", "104125.707500", "104127.197500", "104128.687500", "104130.177500", "104131.667500", "104133.157500", "104134.647500", "104136.137500", "104137.627500", "104139.117500", "104140.607500", "104142.097500", "104143.587500", "104145.077500", "104146.567500", "104148.057500", "104149.547500", "104151.037500", "104152.527500", "104154.017500", "104155.507500", "104156.997500", "104158.487500", "104159.977500", "104201.467500", "104202.957500", "104204.447500", "104205.937500", "104207.427500", "104208.917500", "104210.407500", "104211.897500", "104213.387500", "104214.877500", "104216.367500", "104217.857500", "104219.347500", "104220.837500", "104222.327500", "104223.817500", "104225.307500", "104226.797500", "104228.287500", "104229.777500", "104231.267500", "104232.757500", "104234.247500", "104235.737500", "104237.227500", "104238.717500", "104240.207500", "104241.697500", "104243.187500", "104244.677500", "104246.167500", "104247.657500", "104249.147500", "104250.637500", "104252.127500", "104253.617500", "104255.107500", "104256.597500", "104258.087500", "104259.577500", "104301.067500", "104302.557500", "104304.047500", "104305.537500", "104307.027500", "104308.517500", "104310.007500", "104311.497500", "104312.987500", "104314.477500", "104315.967500", "104317.457500", "104318.947500", "104320.437500", "104321.927500", "104323.417500", "104324.907500", "104326.397500", "104327.887500", "104329.377500", "104330.867500", "104332.357500", "104333.847500", "104335.337500", "104336.827500", "104338.317500", "104339.807500", "104341.297500", "104342.787500", "104344.277500", "104345.767500", "104347.257500", "104348.747500", "104350.237500", "104351.727500", "104353.217500", "104354.707500", "104356.197500", "104357.687500", "104359.177500", "104400.667500", "104402.157500", "104403.647500", "104405.137500", "104406.627500", "104408.117500", "104409.607500", "104411.097500", "104412.587500", "104414.077500", "104415.567500", "104417.057500", "104418.547500", "104420.037500", "104421.527500", "104423.017500", "104424.507500", "104425.997500", "104427.487500", "104428.977500", "104430.467500", "104431.957500", "104433.447500", "104434.937500", "104436.427500", "104437.917500", "104439.407500", "104440.897500", "104442.387500", "104443.877500", "104445.367500", "104446.857500", "104448.347500", "104449.837500", "104451.327500", "104452.817500", "104454.307500", "104455.797500", "104457.287500", "104458.777500", "104500.267500", "104501.757500", "104503.247500", "104504.737500", "104506.227500", "104507.717500", "104509.207500", "104510.697500", "104512.187500", "104513.677500", "104515.167500", "104516.657500", "104518.147500", "104519.637500", "104521.127500", "104522.617500", "104524.107500", "104525.597500", "104527.087500", "104528.577500", "104530.067500", "104531.557500", "104533.047500", "104534.537500", "104536.027500", "104537.517500", "104539.007500", "104540.497500", "104541.987500", "104543.477500", "104544.967500", "104546.457500", "104547.947500", "104549.437500", "104550.927500", "104552.417500", "104553.907500", "104555.397500", "104556.887500", "104558.377500", "104559.867500", "104601.357500", "104602.847500", "104604.337500", "104605.827500", "104607.317500", "104608.807500", "104610.297500", "104611.787500", "104613.277500", "104614.767500", "104616.257500", "104617.747500", "104619.237500", "104620.727500", "104622.217500", "104623.707500", "104625.197500", "104626.687500", "104628.177500", "104629.667500", "104631.157500", "104632.647500", "104634.137500", "104635.627500", "104637.117500", "104638.607500", "104640.097500", "104641.587500", "104643.077500", "104644.567500", "104646.057500", "104647.547500", "104649.037500", "104650.527500", "104652.017500", "104653.507500", "104654.997500", "104656.487500", "104657.977500", "104659.467500", "104700.957500", "104702.447500", "104703.937500", "104705.427500", "104706.917500", "104708.407500", "104709.897500", "104711.387500", "104712.877500", "104714.367500", "104715.857500", "104717.347500", "104718.837500", "104720.327500", "104721.817500", "104723.307500", "104724.797500"],
      "ContentTime": ["103718.250000", "103718.258000", "103718.261000", "103718.264000", "103718.267000", "103718.270000", "103718.273000", "103718.276000", "103718.279000", "103718.282000", "103718.285000", "103718.291000", "103718.294000", "103738.200000", "103738.203000", "103738.206000", "103738.214000", "103738.227000", "103738.230000", "103738.233000", "103738.236000", "103738.239000", "103738.242000", "103738.244000", "103738.248000", "103738.251000", "103738.253000", "103738.256000", "103738.259000", "103738.262000", "103738.265000", "103738.268000", "103738.271000", "103758.200000", "103758.211000", "103758.214000", "103758.217000", "103758.220000", "103758.223000", "103758.226000", "103758.229000", "103758.232000", "103758.235000", "103758.238000", "103758.241000", "103758.244000", "103758.247000", "103758.250000", "103758.253000", "103758.256000", "103758.259000", "103758.262000", "103758.265000", "103818.199000", "103818.202000", "103818.205000", "103818.208000", "103818.211000", "103818.214000", "103818.217000", "103818.220000", "103818.223000", "103818.226000", "103818.229000", "103818.232000", "103818.235000", "103818.237000", "103818.240000", "103818.243000", "103818.246000", "103818.249000", "103818.252000", "103818.255000", "103838.200000", "103838.203000", "103838.206000", "103838.209000", "103838.212000", "103838.215000", "103838.218000", "103838.221000", "103838.224000", "103838.227000", "103838.230000", "103838.233000", "103838.236000", "103838.240000", "103838.243000", "103838.246000", "103838.249000", "103838.252000", "103838.255000", "103838.258000", "103918.200000", "103918.203000", "103918.206000", "103918.209000", "103918.212000", "103918.215000", "103918.218000", "103918.220000", "103918.223000", "103918.226000", "103918.229000", "103918.232000", "103918.235000", "103918.238000", "103918.241000", "103918.244000", "103918.247000", "103918.250000", "103918.253000", "103918.256000", "103918.259000", "103918.262000", "103918.265000", "103918.284000", "103918.287000", "103918.290000", "103918.293000", "103918.296000", "103918.299000", "103918.302000", "103918.305000", "103958.200000", "103958.203000", "103958.206000", "103958.209000", "103958.212000", "103958.215000", "103958.218000", "103958.221000", "103958.224000", "103958.227000", "103958.230000", "103958.233000", "103958.236000", "103958.239000", "103958.242000", "103958.245000", "103958.248000", "103958.251000", "103958.254000", "103958.257000", "103958.260000", "103958.263000", "103958.265000", "103958.269000", "103958.271000", "103958.274000", "103958.277000", "104038.199000", "104038.202000", "104038.205000", "104038.208000", "104038.211000", "104038.223000", "104038.226000", "104038.229000", "104038.232000", "104038.235000", "104038.238000", "104038.241000", "104038.244000", "104038.246000", "104038.250000", "104038.252000", "104038.255000", "104038.258000", "104038.261000", "104038.264000", "104038.267000", "104038.270000", "104038.273000", "104038.276000", "104038.279000", "104038.282000", "104038.285000", "104118.200000", "104118.203000", "104118.206000", "104118.209000", "104118.212000", "104118.215000", "104118.218000", "104118.221000", "104118.224000", "104118.227000", "104118.230000", "104118.233000", "104118.236000", "104118.239000", "104118.242000", "104118.245000", "104118.248000", "104118.251000", "104118.254000", "104118.257000", "104118.260000", "104118.263000", "104118.266000", "104118.269000", "104118.271000", "104118.275000", "104118.277000", "104158.200000", "104158.203000", "104158.206000", "104158.209000", "104158.212000", "104158.215000", "104158.218000", "104158.221000", "104158.224000", "104158.227000", "104158.230000", "104158.233000", "104158.236000", "104158.239000", "104158.242000", "104158.245000", "104158.248000", "104158.251000", "104158.254000", "104158.257000", "104158.260000", "104158.263000", "104158.266000", "104158.269000", "104158.271000", "104158.274000", "104158.277000", "104238.200000", "104238.203000", "104238.206000", "104238.219000", "104238.222000", "104238.225000", "104238.228000", "104238.231000", "104238.234000", "104238.237000", "104238.240000", "104238.243000", "104238.246000", "104238.249000", "104238.252000", "104238.255000", "104238.258000", "104238.261000", "104238.264000", "104238.267000", "104238.270000", "104238.273000", "104238.276000", "104238.278000", "104238.281000", "104238.284000", "104238.287000", "104318.200000", "104318.203000", "104318.206000", "104318.209000", "104318.212000", "104318.215000", "104318.218000", "104318.221000", "104318.224000", "104318.227000", "104318.230000", "104318.233000", "104318.236000", "104318.239000", "104318.242000", "104318.245000", "104318.248000", "104318.251000", "104318.254000", "104318.257000", "104318.264000", "104318.267000", "104318.270000", "104318.273000", "104318.276000", "104318.279000", "104318.281000", "104358.200000", "104358.203000", "104358.206000", "104358.209000", "104358.212000", "104358.215000", "104358.218000", "104358.221000", "104358.224000", "104358.227000", "104358.230000", "104358.233000", "104358.236000", "104358.239000", "104358.242000", "104358.245000", "104358.248000", "104358.251000", "104358.254000", "104358.257000", "104358.260000", "104358.264000", "104358.274000", "104358.277000", "104358.280000", "104358.283000", "104438.200000", "104438.214000", "104438.217000", "104438.220000", "104438.222000", "104438.226000", "104438.228000", "104438.231000", "104438.234000", "104438.237000", "104438.240000", "104438.243000", "104438.246000", "104438.249000", "104438.252000", "104438.255000", "104438.258000", "104438.261000", "104438.264000", "104438.267000", "104438.270000", "104438.273000", "104438.276000", "104438.279000", "104438.282000", "104438.285000", "104438.288000", "104518.199000", "104518.202000", "104518.205000", "104518.208000", "104518.211000", "104518.214000", "104518.217000", "104518.220000", "104518.223000", "104518.226000", "104518.229000", "104518.232000", "104518.235000", "104518.238000", "104518.241000", "104518.244000", "104518.247000", "104518.250000", "104518.253000", "104518.256000", "104518.259000", "104518.262000", "104518.265000", "104518.267000", "104518.270000", "104518.273000", "104518.276000", "104558.200000", "104558.203000", "104558.206000", "104558.209000", "104558.212000", "104558.215000", "104558.218000", "104558.221000", "104558.224000", "104558.227000", "104558.230000", "104558.233000", "104558.236000", "104558.239000", "104558.242000", "104558.245000", "104558.248000", "104558.251000", "104558.254000", "104558.257000", "104558.260000", "104558.263000", "104558.266000", "104558.269000", "104558.272000", "104558.275000", "104558.278000", "104638.200000", "104638.203000", "104638.206000", "104638.209000", "104638.212000", "104638.215000", "104638.218000", "104638.221000", "104638.224000", "104638.227000", "104638.230000", "104638.233000", "104638.236000", "104638.241000", "104638.244000", "104638.247000", "104638.250000", "104638.253000", "104638.256000", "104638.259000", "104638.262000", "104638.265000", "104638.268000", "104638.271000", "104638.274000", "104638.277000", "104638.280000", "104658.200000", "104658.203000", "104658.206000", "104658.209000", "104658.212000", "104658.215000", "104658.218000", "104658.221000", "104658.224000", "104658.227000", "104658.230000", "104658.233000", "104658.236000", "104727.042000", "104727.046000", "104727.049000", "104727.051000", "104727.055000", "104727.058000", "104727.060000", "104727.063000", "104727.066000", "104727.069000", "104727.072000", "104727.075000", "104727.078000", "104727.081000", "104727.084000", "104727.087000", "104727.090000", "104727.094000", "104727.096000", "104727.099000"],
