{
  "AcquisitionMatrixPE": 104,
  "AcquisitionNumber": 1,
  "AcquisitionTime": "14:43:39.060000",
  "BandwidthPerPixelPhaseEncode": 17.17,
  "BaseResolution": 104,
  "BodyPartExamined": "BRAIN",
  "CoilString": "HC1-7;NC1_2",
  "ConsistencyInfo": "N4_VE11C_LATEST_20160120",
  "ConversionSoftware": "dcm2niix",
  "ConversionSoftwareVersion": "v1.0.20190902",
  "DerivedVendorReportedEchoSpacing": 0.000560011,
  "DeviceSerialNumber": "167006",
  "DwellTime": 2.1e-06,
  "EchoTime": 0.037,
  "EchoTrainLength": 104,
  "EffectiveEchoSpacing": 0.000560011,
  "FlipAngle": 52,
  "ImageComments": "Unaliased_MB4_PE3_LB",
  "ImageOrientationPatientDICOM": [0.999887, 0.000526848, 0.0150357, 0.00732973, 0.855702, -0.517418],
  "ImageType": [
    "ORIGINAL",
    "PRIMARY",
    "M",
    "MB",
    "ND",
    "MOSAIC"
],
  "ImagingFrequency": 123.259,
  "InPlanePhaseEncodingDirectionDICOM": "COL",
  "InstitutionAddress": "Chemin_Queen-Mary_4565_Montreal_District_CA_H3W_1W5",
  "InstitutionName": "IUGM",
  "InstitutionalDepartmentName": "Department",
  "MRAcquisitionType": "2D",
  "MagneticFieldStrength": 3,
  "Manufacturer": "Siemens",
  "ManufacturersModelName": "Prisma_fit",
  "Modality": "MR",
  "MultibandAccelerationFactor": 4,
  "PartialFourier": 1,
  "PatientPosition": "HFS",
  "PercentPhaseFOV": 100,
  "PhaseEncodingDirection": "j",
  "PhaseEncodingSteps": 104,
  "PhaseResolution": 1,
  "PixelBandwidth": 2290,
  "ProcedureStepDescription": "language_harrypotter",
  "ProtocolName": "func_task-harrypotter_run-7",
  "PulseSequenceDetails": "%CustomerSeq%_cmrr_mbep2d_bold",
  "ReceiveCoilActiveElements": "HC1-7;NC1,2",
  "ReceiveCoilName": "HeadNeck_64",
  "ReconMatrixPE": 104,
  "RepetitionTime": 1.49,
  "SAR": 0.0375205,
  "ScanOptions": "FS",
  "ScanningSequence": "EP",
  "SequenceName": "epfid2d1_104",
  "SequenceVariant": "SK_SS",
  "SeriesDescription": "func_task-harrypotter_run-7",
  "SeriesNumber": 28,
  "ShimSetting": [624, -7191, -8870, 315, 25, -139, 3, 22],
  "SliceThickness": 2,
  "SliceTiming": [0, 0.7825, 0.0975, 0.88, 0.195, 0.98, 0.2925, 1.0775, 0.3925, 1.175, 0.49, 1.2725, 0.5875, 1.37, 0.685, 0, 0.7825, 0.0975, 0.88, 0.195, 0.98, 0.2925, 1.0775, 0.3925, 1.175, 0.49, 1.2725, 0.5875, 1.37, 0.685, 0, 0.7825, 0.0975, 0.88, 0.195, 0.98, 0.2925, 1.0775, 0.3925, 1.175, 0.49, 1.2725, 0.5875, 1.37, 0.685, 0, 0.7825, 0.0975, 0.88, 0.195, 0.98, 0.2925, 1.0775, 0.3925, 1.175, 0.49, 1.2725, 0.5875, 1.37, 0.685],
  "SoftwareVersions": "syngo_MR_E11",
  "SpacingBetweenSlices": 2,
  "StationName": "MRC35049",
  "TaskName": "harrypotter",
  "TotalReadoutTime": 0.0576811,
  "TxRefAmp": 253.38,
  "WipMemBlock": "955ae481-022b-4a5f-943b-513ae2394933||Sequence: R016 ve11c/master r/e634e98; Dec 19 2017 11:00:25 by eja",
  "dcmmeta_affine": [
    [-1.999773621559143, 0.014659465290606022, 0.02627730742096901, 106.1102523803711],
    [-0.0010536955669522285, 1.7114031314849854, -1.0349388122558594, -50.48891067504883],
    [0.030071357265114784, 1.0348355770111084, 1.7112016677856445, -95.80215454101562],
    [0.0, 0.0, 0.0, 1.0]
],
  "dcmmeta_reorient_transform": [
    [0.0, -1.0, 0.0, 103.0],
    [1.0, 0.0, 0.0, 0.0],
    [0.0, 0.0, 1.0, 0.0],
    [0.0, 0.0, 0.0, 1.0]
],
  "dcmmeta_shape": [104, 104, 60, 536],
  "dcmmeta_slice_dim": 2,
  "dcmmeta_version": 0.6,
  "global": {
    "const": {
      "AcquisitionMatrix": [104, 0, 0, 104],
      "AngioFlag": "N",
      "BitsAllocated": 16,
      "BitsStored": 16,
      "BodyPartExamined": "BRAIN",
      "Columns": 832,
      "EchoNumbers": 1,
      "EchoTime": 37.0,
      "EchoTrainLength": 104,
      "FlipAngle": 52.0,
      "HighBit": 15,
      "ImageOrientationPatient": [0.99988681899549, 0.00052684776742, 0.01503567858495, 0.00732973248803, 0.85570153792505, -0.5174177741577],
      "ImagePositionPatient": [-840.8738300197, -749.11987090004, 376.52006956271],
      "ImageType": [
        "ORIGINAL",
        "PRIMARY",
        "M",
        "MB",
        "ND",
        "MOSAIC"
],
      "ImagedNucleus": "1H",
      "ImagingFrequency": 123.259001,
      "InPlanePhaseEncodingDirection": "COL",
      "MRAcquisitionType": "2D",
      "MagneticFieldStrength": 3.0,
      "Manufacturer": "SIEMENS",
      "ManufacturerModelName": "Prisma_fit",
      "Modality": "MR",
      "NumberOfAverages": 1.0,
      "NumberOfPhaseEncodingSteps": 104,
      "PercentPhaseFieldOfView": 100.0,
      "PercentSampling": 100.0,
      "PerformedProcedureStepStartTime": "124748.843000",
      "PhotometricInterpretation": "MONOCHROME2",
      "PixelBandwidth": 2290.0,
      "PixelRepresentation": 0,
      "PixelSpacing": [2.0, 2.0],
      "ProtocolName": "func_task-harrypotter_run-7",
      "RepetitionTime": 1490.0,
      "Rows": 832,
      "SAR": 0.03752049426461,
      "SamplesPerPixel": 1,
      "ScanOptions": "FS",
      "ScanningSequence": "EP",
      "SequenceName": "epfid2d1_104",
      "SequenceVariant": [
        "SK",
        "SS"
],
      "SeriesDescription": "func_task-harrypotter_run-7",
      "SeriesNumber": 28,
      "SeriesTime": "144506.606000",
      "SliceLocation": -54.447791962226,
      "SliceThickness": 2.0,
      "SmallestImagePixelValue": 0,
      "SoftwareVersions": "syngo MR E11",
      "SpacingBetweenSlices": 1.9999999561315,
      "SpecificCharacterSet": "ISO_IR 100",
      "StudyID": "1",
      "StudyTime": "124748.289000",
      "TransmitCoilName": "Body",
      "VariableFlipAngleFlag": "N",
      "WindowCenterWidthExplanation": "Algo1",
      "dBdt": 0.0},
    "slices": {}
  },
  "time": {
    "samples": {
      "AcquisitionNumber": [1, 2, 3, 4, 5, 6, 7, 8, 9, 10, 11, 12, 13, 14, 15, 16, 17, 18, 19, 20, 21, 22, 23, 24, 25, 26, 27, 28, 29, 30, 31, 32, 33, 34, 35, 36, 37, 38, 39, 40, 41, 42, 43, 44, 45, 46, 47, 48, 49, 50, 51, 52, 53, 54, 55, 56, 57, 58, 59, 60, 61, 62, 63, 64, 65, 66, 67, 68, 69, 70, 71, 72, 73, 74, 75, 76, 77, 78, 79, 80, 81, 82, 83, 84, 85, 86, 87, 88, 89, 90, 91, 92, 93, 94, 95, 96, 97, 98, 99, 100, 101, 102, 103, 104, 105, 106, 107, 108, 109, 110, 111, 112, 113, 114, 115, 116, 117, 118, 119, 120, 121, 122, 123, 124, 125, 126, 127, 128, 129, 130, 131, 132, 133, 134, 135, 136, 137, 138, 139, 140, 141, 142, 143, 144, 145, 146, 147, 148, 149, 150, 151, 152, 153, 154, 155, 156, 157, 158, 159, 160, 161, 162, 163, 164, 165, 166, 167, 168, 169, 170, 171, 172, 173, 174, 175, 176, 177, 178, 179, 180, 181, 182, 183, 184, 185, 186, 187, 188, 189, 190, 191, 192, 193, 194, 195, 196, 197, 198, 199, 200, 201, 202, 203, 204, 205, 206, 207, 208, 209, 210, 211, 212, 213, 214, 215, 216, 217, 218, 219, 220, 221, 222, 223, 224, 225, 226, 227, 228, 229, 230, 231, 232, 233, 234, 235, 236, 237, 238, 239, 240, 241, 242, 243, 244, 245, 246, 247, 248, 249, 250, 251, 252, 253, 254, 255, 256, 257, 258, 259, 260, 261, 262, 263, 264, 265, 266, 267, 268, 269, 270, 271, 272, 273, 274, 275, 276, 277, 278, 279, 280, 281, 282, 283, 284, 285, 286, 287, 288, 289, 290, 291, 292, 293, 294, 295, 296, 297, 298, 299, 300, 301, 302, 303, 304, 305, 306, 307, 308, 309, 310, 311, 312, 313, 314, 315, 316, 317, 318, 319, 320, 321, 322, 323, 324, 325, 326, 327, 328, 329, 330, 331, 332, 333, 334, 335, 336, 337, 338, 339, 340, 341, 342, 343, 344, 345, 346, 347, 348, 349, 350, 351, 352, 353, 354, 355, 356, 357, 358, 359, 360, 361, 362, 363, 364, 365, 366, 367, 368, 369, 370, 371, 372, 373, 374, 375, 376, 377, 378, 379, 380, 381, 382, 383, 384, 385, 386, 387, 388, 389, 390, 391, 392, 393, 394, 395, 396, 397, 398, 399, 400, 401, 402, 403, 404, 405, 406, 407, 408, 409, 410, 411, 412, 413, 414, 415, 416, 417, 418, 419, 420, 421, 422, 423, 424, 425, 426, 427, 428, 429, 430, 431, 432, 433, 434, 435, 436, 437, 438, 439, 440, 441, 442, 443, 444, 445, 446, 447, 448, 449, 450, 451, 452, 453, 454, 455, 456, 457, 458, 459, 460, 461, 462, 463, 464, 465, 466, 467, 468, 469, 470, 471, 472, 473, 474, 475, 476, 477, 478, 479, 480, 481, 482, 483, 484, 485, 486, 487, 488, 489, 490, 491, 492, 493, 494, 495, 496, 497, 498, 499, 500, 501, 502, 503, 504, 505, 506, 507, 508, 509, 510, 511, 512, 513, 514, 515, 516, 517, 518, 519, 520, 521, 522, 523, 524, 525, 526, 527, 528, 529, 530, 531, 532, 533, 534, 535, 536],
      "AcquisitionTime": ["144339.060000", "144340.550000", "144342.040000", "144343.530000", "144345.020000", "144346.510000", "144348.000000", "144349.490000", "144350.980000", "144352.470000", "144353.960000", "144355.450000", "144356.940000", "144358.430000", "144359.920000", "144401.410000", "144402.900000", "144404.390000", "144405.880000", "144407.370000", "144408.860000", "144410.350000", "144411.840000", "144413.330000", "144414.820000", "144416.310000", "144417.800000", "144419.290000", "144420.780000", "144422.270000", "144423.760000", "144425.250000", "144426.740000", "144428.230000", "144429.720000", "144431.210000", "144432.700000", "144434.190000", "144435.680000", "144437.170000", "144438.660000", "144440.150000", "144441.640000", "144443.130000", "144444.620000", "144446.110000", "144447.600000", "144449.090000", "144450.580000", "144452.070000", "144453.560000", "144455.050000", "144456.540000", "144458.030000", "144459.520000", "144501.010000", "144502.500000", "144503.990000", "144505.480000", "144506.970000", "144508.460000", "144509.950000", "144511.440000", "144512.930000", "144514.420000", "144515.910000", "144517.400000", "144518.890000", "144520.380000", "144521.870000", "144523.360000", "144524.850000", "144526.340000", "144527.830000", "144529.320000", "144530.810000", "144532.300000", "144533.790000", "144535.280000", "144536.770000", "144538.260000", "144539.750000", "144541.240000", "144542.730000", "144544.220000", "144545.710000", "144547.200000", "144548.690000", "144550.180000", "144551.670000", "144553.160000", "144554.650000", "144556.140000", "144557.630000", "144559.120000", "144600.610000", "144602.100000", "144603.590000", "144605.080000", "144606.570000", "144608.060000", "144609.550000", "144611.040000", "144612.530000", "144614.020000", "144615.510000", "144617.000000", "144618.490000", "144619.980000", "144621.470000", "144622.960000", "144624.450000", "144625.940000", "144627.430000", "144628.920000", "144630.410000", "144631.900000", "144633.390000", "144634.880000", "144636.370000", "144637.860000", "144639.350000", "144640.840000", "144642.330000", "144643.820000", "144645.310000", "144646.800000", "144648.290000", "144649.780000", "144651.270000", "144652.760000", "144654.250000", "144655.740000", "144657.230000", "144658.720000", "144700.210000", "144701.700000", "144703.190000", "144704.680000", "144706.170000", "144707.660000", "144709.150000", "144710.640000", "144712.130000", "144713.620000", "144715.110000", "144716.600000", "144718.090000", "144719.580000", "144721.070000", "144722.560000", "144724.050000", "144725.540000", "144727.030000", "144728.520000", "144730.010000", "144731.500000", "144732.990000", "144734.480000", "144735.970000", "144737.460000", "144738.950000", "144740.440000", "144741.930000", "144743.420000", "144744.910000", "144746.400000", "144747.890000", "144749.380000", "144750.870000", "144752.360000", "144753.850000", "144755.340000", "144756.830000", "144758.320000", "144759.810000", "144801.300000", "144802.790000", "144804.280000", "144805.770000", "144807.260000", "144808.750000", "144810.240000", "144811.730000", "144813.220000", "144814.710000", "144816.200000", "144817.690000", "144819.180000", "144820.670000", "144822.160000", "144823.650000", "144825.140000", "144826.630000", "144828.120000", "144829.610000", "144831.100000", "144832.590000", "144834.080000", "144835.570000", "144837.060000", "144838.550000", "144840.040000", "144841.530000", "144843.020000", "144844.510000", "144846.000000", "144847.490000", "144848.980000", "144850.470000", "144851.960000", "144853.450000", "144854.940000", "144856.430000", "144857.920000", "144859.410000", "144900.900000", "144902.390000", "144903.880000", "144905.370000", "144906.860000", "144908.350000", "144909.840000", "144911.330000", "144912.820000", "144914.310000", "144915.800000", "144917.290000", "144918.780000", "144920.270000", "144921.760000", "144923.250000", "144924.740000", "144926.230000", "144927.720000", "144929.210000", "144930.700000", "144932.190000", "144933.680000", "144935.170000", "144936.660000", "144938.150000", "144939.640000", "144941.130000", "144942.620000", "144944.110000", "144945.600000", "144947.090000", "144948.580000", "144950.070000", "144951.560000", "144953.050000", "144954.540000", "144956.030000", "144957.520000", "144959.010000", "145000.500000", "145001.990000", "145003.480000", "145004.970000", "145006.460000", "145007.950000", "145009.440000", "145010.930000", "145012.420000", "145013.910000", "145015.400000", "145016.890000", "145018.380000", "145019.870000", "145021.360000", "145022.850000", "145024.340000", "145025.830000", "145027.320000", "145028.810000", "145030.300000", "145031.790000", "145033.280000", "145034.770000", "145036.260000", "145037.750000", "145039.240000", "145040.730000", "145042.220000", "145043.710000", "145045.200000", "145046.690000", "145048.180000", "145049.670000", "145051.160000", "145052.650000", "145054.140000", "145055.630000", "145057.120000", "145058.610000", "145100.100000", "145101.590000", "145103.080000", "145104.570000", "145106.060000", "145107.550000", "145109.040000", "145110.530000", "145112.020000", "145113.510000", "145115.000000", "145116.490000", "145117.980000", "145119.470000", "145120.960000", "145122.450000", "145123.940000", "145125.430000", "145126.920000", "145128.410000", "145129.900000", "145131.390000", "145132.880000", "145134.370000", "145135.860000", "145137.350000", "145138.840000", "145140.330000", "145141.820000", "145143.310000", "145144.800000", "145146.290000", "145147.780000", "145149.270000", "145150.760000", "145152.250000", "145153.740000", "145155.230000", "145156.720000", "145158.210000", "145159.700000", "145201.190000", "145202.680000", "145204.170000", "145205.660000", "145207.150000", "145208.640000", "145210.130000", "145211.620000", "145213.110000", "145214.600000", "145216.090000", "145217.580000", "145219.070000", "145220.560000", "145222.050000", "145223.540000", "145225.030000", "145226.520000", "145228.010000", "145229.500000", "145230.990000", "145232.480000", "145233.970000", "145235.460000", "145236.950000", "145238.440000", "145239.930000", "145241.420000", "145242.910000", "145244.400000", "145245.890000", "145247.380000", "145248.870000", "145250.360000", "145251.850000", "145253.340000", "145254.830000", "145256.320000", "145257.810000", "145259.300000", "145300.790000", "145302.280000", "145303.770000", "145305.260000", "145306.750000", "145308.240000", "145309.730000", "145311.220000", "145312.710000", "145314.200000", "145315.690000", "145317.180000", "145318.670000", "145320.160000", "145321.650000", "145323.140000", "145324.630000", "145326.120000", "145327.610000", "145329.100000", "145330.590000", "145332.080000", "145333.570000", "145335.060000", "145336.550000", "145338.040000", "145339.530000", "145341.020000", "145342.510000", "145344.000000", "145345.490000", "145346.980000", "145348.470000", "145349.960000", "145351.450000", "145352.940000", "145354.430000", "145355.920000", "145357.410000", "145358.900000", "145400.390000", "145401.880000", "145403.370000", "145404.860000", "145406.350000", "145407.840000", "145409.330000", "145410.820000", "145412.310000", "145413.800000", "145415.290000", "145416.780000", "145418.270000", "145419.760000", "145421.250000", "145422.740000", "145424.230000", "145425.720000", "145427.210000", "145428.700000", "145430.190000", "145431.680000", "145433.170000", "145434.660000", "145436.150000", "145437.640000", "145439.130000", "145440.620000", "145442.110000", "145443.600000", "145445.090000", "145446.580000", "145448.070000", "145449.560000", "145451.050000", "145452.540000", "145454.030000", "145455.520000", "145457.010000", "145458.500000", "145459.990000", "145501.480000", "145502.970000", "145504.460000", "145505.950000", "145507.440000", "145508.930000", "145510.420000", "145511.910000", "145513.400000", "145514.890000", "145516.380000", "145517.870000", "145519.360000", "145520.850000", "145522.340000", "145523.830000", "145525.320000", "145526.810000", "145528.300000", "145529.790000", "145531.280000", "145532.770000", "145534.260000", "145535.750000", "145537.240000", "145538.730000", "145540.220000", "145541.710000", "145543.200000", "145544.690000", "145546.180000", "145547.670000", "145549.160000", "145550.650000", "145552.140000", "145553.630000", "145555.120000", "145556.610000", "145558.100000", "145559.590000", "145601.080000", "145602.570000", "145604.060000", "145605.550000", "145607.040000", "145608.530000", "145610.020000", "145611.510000", "145613.000000", "145614.490000", "145615.980000", "145617.470000", "145618.960000", "145620.450000", "145621.940000", "145623.430000", "145624.920000", "145626.410000", "145627.900000", "145629.390000", "145630.880000", "145632.370000", "145633.860000", "145635.350000", "145636.840000", "145638.330000", "145639.820000", "145641.310000", "145642.800000", "145644.290000", "145645.780000", "145647.270000", "145648.760000", "145650.250000", "145651.740000", "145653.230000", "145654.720000", "145656.210000"],
      "ContentTime": ["144506.609000", "144506.613000", "144506.616000", "144506.618000", "144506.622000", "144506.624000", "144506.627000", "144506.630000", "144506.633000", "144506.636000", "144506.639000", "144506.642000", "144506.645000", "144506.648000", "144506.651000", "144506.654000", "144506.657000", "144506.660000", "144506.663000", "144506.673000", "144506.676000", "144506.679000", "144506.682000", "144506.685000", "144506.688000", "144506.691000", "144506.694000", "144506.696000", "144506.699000", "144506.702000", "144506.705000", "144526.578000", "144526.581000", "144526.584000", "144526.587000", "144526.590000", "144526.601000", "144526.604000", "144526.607000", "144526.610000", "144526.613000", "144526.616000", "144526.618000", "144526.622000", "144526.624000", "144526.627000", "144526.630000", "144526.633000", "144526.636000", "144526.639000", "144526.642000", "144526.645000", "144546.588000", "144546.591000", "144546.594000", "144546.597000", "144546.600000", "144546.603000", "144546.606000", "144546.609000", "144546.612000", "144546.615000", "144546.617000", "144546.621000", "144546.623000", "144546.634000", "144546.638000", "144546.641000", "144546.644000", "144546.646000", "144546.649000", "144546.653000", "144606.578000", "144606.581000", "144606.584000", "144606.587000", "144606.590000", "144606.593000", "144606.596000", "144606.600000", "144606.603000", "144606.610000", "144606.613000", "144606.616000", "144606.619000", "144606.622000", "144606.625000", "144606.628000", "144606.631000", "144606.634000", "144606.637000", "144606.640000", "144646.577000", "144646.580000", "144646.583000", "144646.586000", "144646.589000", "144646.592000", "144646.595000", "144646.598000", "144646.601000", "144646.604000", "144646.607000", "144646.610000", "144646.613000", "144646.616000", "144646.619000", "144646.622000", "144646.625000", "144646.628000", "144646.630000", "144646.633000", "144646.636000", "144646.639000", "144646.642000", "144646.645000", "144646.648000", "144646.651000", "144646.654000", "144646.657000", "144646.660000", "144646.663000", "144646.666000", "144646.669000", "144646.671000", "144726.577000", "144726.580000", "144726.583000", "144726.586000", "144726.589000", "144726.592000", "144726.595000", "144726.598000", "144726.601000", "144726.604000", "144726.607000", "144726.610000", "144726.613000", "144726.616000", "144726.619000", "144726.622000", "144726.625000", "144726.627000", "144726.630000", "144726.633000", "144726.636000", "144726.639000", "144726.642000", "144726.645000", "144726.648000", "144726.651000", "144726.654000", "144806.577000", "144806.590000", "144806.593000", "144806.596000", "144806.599000", "144806.602000", "144806.605000", "144806.608000", "144806.611000", "144806.614000", "144806.617000", "144806.621000", "144806.624000", "144806.627000", "144806.630000", "144806.633000", "144806.637000", "144806.640000", "144806.643000", "144806.647000", "144806.650000", "144806.654000", "144806.657000", "144806.660000", "144806.663000", "144806.666000", "144846.577000", "144846.580000", "144846.583000", "144846.586000", "144846.589000", "144846.592000", "144846.595000", "144846.598000", "144846.601000", "144846.604000", "144846.607000", "144846.610000", "144846.613000", "144846.616000", "144846.618000", "144846.621000", "144846.624000", "144846.627000", "144846.630000", "144846.633000", "144846.636000", "144846.639000", "144846.642000", "144846.645000", "144846.648000", "144846.651000", "144846.654000", "144926.577000", "144926.580000", "144926.583000", "144926.586000", "144926.589000", "144926.592000", "144926.595000", "144926.598000", "144926.601000", "144926.604000", "144926.607000", "144926.610000", "144926.613000", "144926.616000", "144926.619000", "144926.622000", "144926.625000", "144926.628000", "144926.631000", "144926.634000", "144926.636000", "144926.639000", "144926.643000", "144926.646000", "144926.648000", "144926.651000", "144926.654000", "145006.578000", "145006.581000", "145006.584000", "145006.587000", "145006.590000", "145006.593000", "145006.601000", "145006.604000", "145006.607000", "145006.610000", "145006.613000", "145006.616000", "145006.619000", "145006.622000", "145006.625000", "145006.628000", "145006.631000", "145006.634000", "145006.637000", "145006.640000", "145006.642000", "145006.645000", "145006.659000", "145006.663000", "145006.666000", "145006.675000", "145006.678000", "145046.577000", "145046.580000", "145046.583000", "145046.586000", "145046.589000", "145046.592000", "145046.595000", "145046.598000", "145046.601000", "145046.604000", "145046.607000", "145046.610000", "145046.613000", "145046.616000", "145046.618000", "145046.621000", "145046.624000", "145046.627000", "145046.630000", "145046.633000", "145046.636000", "145046.639000", "145046.642000", "145046.645000", "145046.648000", "145046.651000", "145046.654000", "145126.577000", "145126.580000", "145126.583000", "145126.586000", "145126.589000", "145126.592000", "145126.595000", "145126.598000", "145126.601000", "145126.604000", "145126.607000", "145126.610000", "145126.620000", "145126.623000", "145126.626000", "145126.629000", "145126.632000", "145126.635000", "145126.638000", "145126.641000", "145126.644000", "145126.647000", "145126.650000", "145126.653000", "145126.656000", "145126.659000", "145126.662000", "145206.577000", "145206.580000", "145206.583000", "145206.586000", "145206.589000", "145206.592000", "145206.595000", "145206.598000", "145206.601000", "145206.604000", "145206.607000", "145206.610000", "145206.613000", "145206.616000", "145206.619000", "145206.622000", "145206.625000", "145206.628000", "145206.631000", "145206.634000", "145206.637000", "145206.646000", "145206.650000", "145206.652000", "145206.655000", "145206.658000", "145206.661000", "145246.577000", "145246.580000", "145246.583000", "145246.586000", "145246.589000", "145246.592000", "145246.595000", "145246.598000", "145246.601000", "145246.604000", "145246.607000", "145246.610000", "145246.613000", "145246.616000", "145246.619000", "145246.622000", "145246.625000", "145246.629000", "145246.632000", "145246.635000", "145246.638000", "145246.641000", "145246.644000", "145246.647000", "145246.650000", "145246.653000", "145326.577000", "145326.580000", "145326.583000", "145326.586000", "145326.589000", "145326.592000", "145326.595000", "145326.598000", "145326.601000", "145326.604000", "145326.607000", "145326.610000", "145326.613000", "145326.616000", "145326.618000", "145326.622000", "145326.625000", "145326.627000", "145326.630000", "145326.633000", "145326.636000", "145326.639000", "145326.642000", "145326.645000", "145326.648000", "145326.651000", "145326.654000", "145406.577000", "145406.580000", "145406.583000", "145406.586000", "145406.589000", "145406.592000", "145406.595000", "145406.598000", "145406.601000", "145406.604000", "145406.607000", "145406.610000", "145406.613000", "145406.616000", "145406.619000", "145406.622000", "145406.625000", "145406.628000", "145406.631000", "145406.634000", "145406.637000", "145406.640000", "145406.653000", "145406.656000", "145406.659000", "145406.662000", "145406.665000", "145446.578000", "145446.581000", "145446.584000", "145446.587000", "145446.590000", "145446.593000", "145446.596000", "145446.599000", "145446.602000", "145446.605000", "145446.608000", "145446.611000", "145446.614000", "145446.617000", "145446.620000", "145446.623000", "145446.626000", "145446.629000", "145446.631000", "145446.634000", "145446.637000", "145446.640000", "145446.643000", "145446.646000", "145446.649000", "145446.652000", "145446.655000", "145526.577000", "145526.580000", "145526.591000", "145526.594000", "145526.597000", "145526.600000", "145526.603000", "145526.606000", "145526.609000", "145526.612000", "145526.615000", "145526.618000", "145526.621000", "145526.624000", "145526.627000", "145526.630000", "145526.633000", "145526.636000", "145526.639000", "145526.642000", "145526.645000", "145526.648000", "145526.651000", "145526.654000", "145526.657000", "145526.660000", "145526.662000", "145606.577000", "145606.580000", "145606.583000", "145606.586000", "145606.589000", "145606.592000", "145606.595000", "145606.598000", "145606.601000", "145606.604000", "145606.607000", "145606.610000", "145606.613000", "145606.616000", "145606.621000", "145606.625000", "145606.627000", "145606.630000", "145606.633000", "145606.636000", "145606.639000", "145606.642000", "145606.645000", "145606.648000", "145606.651000", "145606.654000", "145606.657000", "145646.577000", "145646.580000", "145646.583000", "145646.586000", "145646.589000", "145646.592000", "145646.595000", "145646.598000", "145646.601000", "145646.604000", "145646.607000", "145646.610000", "145646.613000", "145646.616000", "145646.619000", "145646.622000", "145646.625000", "145646.628000", "145646.631000", "145646.635000", "145646.640000", "145646.644000", "145646.647000", "145646.650000", "145646.654000", "145646.657000", "145658.618000", "145658.621000", "145658.624000", "145658.627000", "145658.630000", "145658.633000", "145658.636000", "145658.639000", "145658.642000"],
