{
  "AcquisitionMatrixPE": 104,
  "AcquisitionNumber": 1,
  "AcquisitionTime": "13:29:33.855000",
  "BandwidthPerPixelPhaseEncode": 17.17,
  "BaseResolution": 104,
  "BodyPartExamined": "BRAIN",
  "CoilString": "HC1-7;NC1_2",
  "ConsistencyInfo": "N4_VE11C_LATEST_20160120",
  "ConversionSoftware": "dcm2niix",
  "ConversionSoftwareVersion": "v1.0.20190902",
  "DerivedVendorReportedEchoSpacing": 0.000560011,
  "DeviceSerialNumber": "167006",
  "DwellTime": 2.1e-06,
  "EchoTime": 0.037,
  "EchoTrainLength": 104,
  "EffectiveEchoSpacing": 0.000560011,
  "FlipAngle": 52,
  "ImageComments": "Unaliased_MB4_PE3_LB",
  "ImageOrientationPatientDICOM": [0.999952, 0.00797596, 0.00572399, -0.00401408, 0.864255, -0.503038],
  "ImageType": [
    "ORIGINAL",
    "PRIMARY",
    "M",
    "MB",
    "ND",
    "MOSAIC"
],
  "ImagingFrequency": 123.259,
  "InPlanePhaseEncodingDirectionDICOM": "COL",
  "InstitutionAddress": "Chemin_Queen-Mary_4565_Montreal_District_CA_H3W_1W5",
  "InstitutionName": "IUGM",
  "InstitutionalDepartmentName": "Department",
  "MRAcquisitionType": "2D",
  "MagneticFieldStrength": 3,
  "Manufacturer": "Siemens",
  "ManufacturersModelName": "Prisma_fit",
  "Modality": "MR",
  "MultibandAccelerationFactor": 4,
  "PartialFourier": 1,
  "PatientPosition": "HFS",
  "PercentPhaseFOV": 100,
  "PhaseEncodingDirection": "j",
  "PhaseEncodingSteps": 104,
  "PhaseResolution": 1,
  "PixelBandwidth": 2290,
  "ProcedureStepDescription": "language_harrypotter",
  "ProtocolName": "func_task-harrypotter_run-2",
  "PulseSequenceDetails": "%CustomerSeq%_cmrr_mbep2d_bold",
  "ReceiveCoilActiveElements": "HC1-7;NC1,2",
  "ReceiveCoilName": "HeadNeck_64",
  "ReconMatrixPE": 104,
  "RepetitionTime": 1.49,
  "SAR": 0.0352523,
  "ScanOptions": "FS",
  "ScanningSequence": "EP",
  "SequenceName": "epfid2d1_104",
  "SequenceVariant": "SK_SS",
  "SeriesDescription": "func_task-harrypotter_run-2",
  "SeriesNumber": 11,
  "ShimSetting": [619, -7203, -8872, 372, -13, -163, 42, -13],
  "SliceThickness": 2,
  "SliceTiming": [0, 0.785, 0.0975, 0.8825, 0.195, 0.98, 0.295, 1.0775, 0.3925, 1.175, 0.49, 1.275, 0.5875, 1.3725, 0.685, 0, 0.785, 0.0975, 0.8825, 0.195, 0.98, 0.295, 1.0775, 0.3925, 1.175, 0.49, 1.275, 0.5875, 1.3725, 0.685, 0, 0.785, 0.0975, 0.8825, 0.195, 0.98, 0.295, 1.0775, 0.3925, 1.175, 0.49, 1.275, 0.5875, 1.3725, 0.685, 0, 0.785, 0.0975, 0.8825, 0.195, 0.98, 0.295, 1.0775, 0.3925, 1.175, 0.49, 1.275, 0.5875, 1.3725, 0.685],
  "SoftwareVersions": "syngo_MR_E11",
  "SpacingBetweenSlices": 2,
  "StationName": "MRC35049",
  "TaskName": "harrypotter",
  "TotalReadoutTime": 0.0576811,
  "TxRefAmp": 247.867,
  "WipMemBlock": "19b186ff-aafb-4548-8dd4-d81328c6a9c1||Sequence: R016 ve11c/master r/e634e98; Dec 19 2017 11:00:25 by eja",
  "dcmmeta_affine": [
    [-1.9999035596847534, -0.008028155192732811, 0.017918387427926064, 107.42924499511719],
    [-0.01595192402601242, 1.7285101413726807, -1.005981206893921, -50.887489318847656],
    [0.011447971686720848, 1.0060756206512451, 1.728490948677063, -93.90111541748047],
    [0.0, 0.0, 0.0, 1.0]
],
  "dcmmeta_reorient_transform": [
    [0.0, -1.0, 0.0, 103.0],
    [1.0, 0.0, 0.0, 0.0],
    [0.0, 0.0, 1.0, 0.0],
    [0.0, 0.0, 0.0, 1.0]
],
  "dcmmeta_shape": [104, 104, 60, 471],
  "dcmmeta_slice_dim": 2,
  "dcmmeta_version": 0.6,
  "global": {
    "const": {
      "AcquisitionMatrix": [104, 0, 0, 104],
      "AngioFlag": "N",
      "BitsAllocated": 16,
      "BitsStored": 16,
      "BodyPartExamined": "BRAIN",
      "Columns": 832,
      "EchoNumbers": 1,
      "EchoTime": 37.0,
      "EchoTrainLength": 104,
      "FlipAngle": 52.0,
      "HighBit": 15,
      "ImageOrientationPatient": [0.99995180885036, 0.00797596165411, 0.00572398572482, -0.0040140776727, 0.86425508716076, -0.5030378032486],
      "ImagePositionPatient": [-831.64501457489, -762.13326340621, 371.76912831481],
      "ImageType": [
        "ORIGINAL",
        "PRIMARY",
        "M",
        "MB",
        "ND",
        "MOSAIC"
],
      "ImagedNucleus": "1H",
      "ImagingFrequency": 123.258979,
      "InPlanePhaseEncodingDirection": "COL",
      "MRAcquisitionType": "2D",
      "MagneticFieldStrength": 3.0,
      "Manufacturer": "SIEMENS",
      "ManufacturerModelName": "Prisma_fit",
      "Modality": "MR",
      "NumberOfAverages": 1.0,
      "NumberOfPhaseEncodingSteps": 104,
      "PercentPhaseFieldOfView": 100.0,
      "PercentSampling": 100.0,
      "PerformedProcedureStepStartTime": "124748.843000",
      "PhotometricInterpretation": "MONOCHROME2",
      "PixelBandwidth": 2290.0,
      "PixelRepresentation": 0,
      "PixelSpacing": [2.0, 2.0],
      "ProtocolName": "func_task-harrypotter_run-2",
      "RepetitionTime": 1490.0,
      "Rows": 832,
      "SAR": 0.03525225185013,
      "SamplesPerPixel": 1,
      "ScanOptions": "FS",
      "ScanningSequence": "EP",
      "SequenceName": "epfid2d1_104",
      "SequenceVariant": [
        "SK",
        "SS"
],
      "SeriesDescription": "func_task-harrypotter_run-2",
      "SeriesNumber": 11,
      "SeriesTime": "133106.603000",
      "SliceLocation": -54.595207762782,
      "SliceThickness": 2.0,
      "SmallestImagePixelValue": 0,
      "SoftwareVersions": "syngo MR E11",
      "SpacingBetweenSlices": 1.9999999923055,
      "SpecificCharacterSet": "ISO_IR 100",
      "StudyID": "1",
      "StudyTime": "124748.289000",
      "TransmitCoilName": "Body",
      "VariableFlipAngleFlag": "N",
      "WindowCenterWidthExplanation": "Algo1",
      "dBdt": 0.0},
    "slices": {}
  },
  "time": {
    "samples": {
      "AcquisitionNumber": [1, 2, 3, 4, 5, 6, 7, 8, 9, 10, 11, 12, 13, 14, 15, 16, 17, 18, 19, 20, 21, 22, 23, 24, 25, 26, 27, 28, 29, 30, 31, 32, 33, 34, 35, 36, 37, 38, 39, 40, 41, 42, 43, 44, 45, 46, 47, 48, 49, 50, 51, 52, 53, 54, 55, 56, 57, 58, 59, 60, 61, 62, 63, 64, 65, 66, 67, 68, 69, 70, 71, 72, 73, 74, 75, 76, 77, 78, 79, 80, 81, 82, 83, 84, 85, 86, 87, 88, 89, 90, 91, 92, 93, 94, 95, 96, 97, 98, 99, 100, 101, 102, 103, 104, 105, 106, 107, 108, 109, 110, 111, 112, 113, 114, 115, 116, 117, 118, 119, 120, 121, 122, 123, 124, 125, 126, 127, 128, 129, 130, 131, 132, 133, 134, 135, 136, 137, 138, 139, 140, 141, 142, 143, 144, 145, 146, 147, 148, 149, 150, 151, 152, 153, 154, 155, 156, 157, 158, 159, 160, 161, 162, 163, 164, 165, 166, 167, 168, 169, 170, 171, 172, 173, 174, 175, 176, 177, 178, 179, 180, 181, 182, 183, 184, 185, 186, 187, 188, 189, 190, 191, 192, 193, 194, 195, 196, 197, 198, 199, 200, 201, 202, 203, 204, 205, 206, 207, 208, 209, 210, 211, 212, 213, 214, 215, 216, 217, 218, 219, 220, 221, 222, 223, 224, 225, 226, 227, 228, 229, 230, 231, 232, 233, 234, 235, 236, 237, 238, 239, 240, 241, 242, 243, 244, 245, 246, 247, 248, 249, 250, 251, 252, 253, 254, 255, 256, 257, 258, 259, 260, 261, 262, 263, 264, 265, 266, 267, 268, 269, 270, 271, 272, 273, 274, 275, 276, 277, 278, 279, 280, 281, 282, 283, 284, 285, 286, 287, 288, 289, 290, 291, 292, 293, 294, 295, 296, 297, 298, 299, 300, 301, 302, 303, 304, 305, 306, 307, 308, 309, 310, 311, 312, 313, 314, 315, 316, 317, 318, 319, 320, 321, 322, 323, 324, 325, 326, 327, 328, 329, 330, 331, 332, 333, 334, 335, 336, 337, 338, 339, 340, 341, 342, 343, 344, 345, 346, 347, 348, 349, 350, 351, 352, 353, 354, 355, 356, 357, 358, 359, 360, 361, 362, 363, 364, 365, 366, 367, 368, 369, 370, 371, 372, 373, 374, 375, 376, 377, 378, 379, 380, 381, 382, 383, 384, 385, 386, 387, 388, 389, 390, 391, 392, 393, 394, 395, 396, 397, 398, 399, 400, 401, 402, 403, 404, 405, 406, 407, 408, 409, 410, 411, 412, 413, 414, 415, 416, 417, 418, 419, 420, 421, 422, 423, 424, 425, 426, 427, 428, 429, 430, 431, 432, 433, 434, 435, 436, 437, 438, 439, 440, 441, 442, 443, 444, 445, 446, 447, 448, 449, 450, 451, 452, 453, 454, 455, 456, 457, 458, 459, 460, 461, 462, 463, 464, 465, 466, 467, 468, 469, 470, 471],
      "AcquisitionTime": ["132933.855000", "132935.345000", "132936.835000", "132938.325000", "132939.815000", "132941.305000", "132942.795000", "132944.285000", "132945.775000", "132947.265000", "132948.755000", "132950.245000", "132951.735000", "132953.225000", "132954.715000", "132956.205000", "132957.695000", "132959.185000", "133000.675000", "133002.165000", "133003.655000", "133005.145000", "133006.635000", "133008.125000", "133009.615000", "133011.105000", "133012.595000", "133014.085000", "133015.575000", "133017.065000", "133018.555000", "133020.045000", "133021.535000", "133023.025000", "133024.515000", "133026.005000", "133027.495000", "133028.985000", "133030.475000", "133031.965000", "133033.455000", "133034.945000", "133036.435000", "133037.925000", "133039.415000", "133040.905000", "133042.395000", "133043.885000", "133045.375000", "133046.865000", "133048.355000", "133049.845000", "133051.335000", "133052.825000", "133054.315000", "133055.805000", "133057.295000", "133058.785000", "133100.275000", "133101.765000", "133103.255000", "133104.745000", "133106.235000", "133107.725000", "133109.215000", "133110.705000", "133112.195000", "133113.685000", "133115.175000", "133116.665000", "133118.155000", "133119.645000", "133121.135000", "133122.625000", "133124.115000", "133125.605000", "133127.095000", "133128.585000", "133130.075000", "133131.565000", "133133.055000", "133134.545000", "133136.035000", "133137.525000", "133139.015000", "133140.505000", "133141.995000", "133143.485000", "133144.975000", "133146.465000", "133147.955000", "133149.445000", "133150.935000", "133152.425000", "133153.915000", "133155.405000", "133156.895000", "133158.385000", "133159.875000", "133201.365000", "133202.855000", "133204.345000", "133205.835000", "133207.325000", "133208.815000", "133210.305000", "133211.795000", "133213.285000", "133214.775000", "133216.265000", "133217.755000", "133219.245000", "133220.735000", "133222.225000", "133223.715000", "133225.205000", "133226.695000", "133228.185000", "133229.675000", "133231.165000", "133232.655000", "133234.145000", "133235.635000", "133237.125000", "133238.615000", "133240.105000", "133241.595000", "133243.085000", "133244.575000", "133246.065000", "133247.555000", "133249.045000", "133250.535000", "133252.025000", "133253.515000", "133255.005000", "133256.495000", "133257.985000", "133259.475000", "133300.965000", "133302.455000", "133303.945000", "133305.435000", "133306.925000", "133308.415000", "133309.905000", "133311.395000", "133312.885000", "133314.375000", "133315.865000", "133317.355000", "133318.845000", "133320.335000", "133321.825000", "133323.315000", "133324.805000", "133326.295000", "133327.785000", "133329.275000", "133330.765000", "133332.255000", "133333.745000", "133335.235000", "133336.725000", "133338.215000", "133339.705000", "133341.195000", "133342.685000", "133344.175000", "133345.665000", "133347.155000", "133348.645000", "133350.135000", "133351.625000", "133353.115000", "133354.605000", "133356.095000", "133357.585000", "133359.075000", "133400.565000", "133402.055000", "133403.545000", "133405.035000", "133406.525000", "133408.015000", "133409.505000", "133410.995000", "133412.485000", "133413.975000", "133415.465000", "133416.955000", "133418.445000", "133419.935000", "133421.425000", "133422.915000", "133424.405000", "133425.895000", "133427.385000", "133428.875000", "133430.365000", "133431.855000", "133433.345000", "133434.835000", "133436.325000", "133437.815000", "133439.305000", "133440.795000", "133442.285000", "133443.775000", "133445.265000", "133446.755000", "133448.245000", "133449.735000", "133451.225000", "133452.715000", "133454.205000", "133455.695000", "133457.185000", "133458.675000", "133500.165000", "133501.655000", "133503.145000", "133504.635000", "133506.125000", "133507.615000", "133509.105000", "133510.595000", "133512.085000", "133513.575000", "133515.065000", "133516.555000", "133518.045000", "133519.535000", "133521.025000", "133522.515000", "133524.005000", "133525.495000", "133526.985000", "133528.475000", "133529.965000", "133531.455000", "133532.945000", "133534.435000", "133535.925000", "133537.415000", "133538.905000", "133540.395000", "133541.885000", "133543.375000", "133544.865000", "133546.355000", "133547.845000", "133549.335000", "133550.825000", "133552.315000", "133553.805000", "133555.295000", "133556.785000", "133558.275000", "133559.765000", "133601.255000", "133602.745000", "133604.235000", "133605.725000", "133607.215000", "133608.705000", "133610.195000", "133611.685000", "133613.175000", "133614.665000", "133616.155000", "133617.645000", "133619.135000", "133620.625000", "133622.115000", "133623.605000", "133625.095000", "133626.585000", "133628.075000", "133629.565000", "133631.055000", "133632.545000", "133634.035000", "133635.525000", "133637.015000", "133638.505000", "133639.995000", "133641.485000", "133642.975000", "133644.465000", "133645.955000", "133647.445000", "133648.935000", "133650.425000", "133651.915000", "133653.405000", "133654.895000", "133656.385000", "133657.875000", "133659.365000", "133700.855000", "133702.345000", "133703.835000", "133705.325000", "133706.815000", "133708.305000", "133709.795000", "133711.285000", "133712.775000", "133714.265000", "133715.755000", "133717.245000", "133718.735000", "133720.225000", "133721.715000", "133723.205000", "133724.695000", "133726.185000", "133727.675000", "133729.165000", "133730.655000", "133732.145000", "133733.635000", "133735.125000", "133736.615000", "133738.105000", "133739.595000", "133741.085000", "133742.575000", "133744.065000", "133745.555000", "133747.045000", "133748.535000", "133750.025000", "133751.515000", "133753.005000", "133754.495000", "133755.985000", "133757.475000", "133758.965000", "133800.455000", "133801.945000", "133803.435000", "133804.925000", "133806.415000", "133807.905000", "133809.395000", "133810.885000", "133812.375000", "133813.865000", "133815.355000", "133816.845000", "133818.335000", "133819.825000", "133821.315000", "133822.805000", "133824.295000", "133825.785000", "133827.275000", "133828.765000", "133830.255000", "133831.745000", "133833.235000", "133834.725000", "133836.215000", "133837.705000", "133839.195000", "133840.685000", "133842.175000", "133843.665000", "133845.155000", "133846.645000", "133848.135000", "133849.625000", "133851.115000", "133852.605000", "133854.095000", "133855.585000", "133857.075000", "133858.565000", "133900.055000", "133901.545000", "133903.035000", "133904.525000", "133906.015000", "133907.505000", "133908.995000", "133910.485000", "133911.975000", "133913.465000", "133914.955000", "133916.445000", "133917.935000", "133919.425000", "133920.915000", "133922.405000", "133923.895000", "133925.385000", "133926.875000", "133928.365000", "133929.855000", "133931.345000", "133932.835000", "133934.325000", "133935.815000", "133937.305000", "133938.795000", "133940.285000", "133941.775000", "133943.265000", "133944.755000", "133946.245000", "133947.735000", "133949.225000", "133950.715000", "133952.205000", "133953.695000", "133955.185000", "133956.675000", "133958.165000", "133959.655000", "134001.145000", "134002.635000", "134004.125000", "134005.615000", "134007.105000", "134008.595000", "134010.085000", "134011.575000", "134013.065000", "134014.555000", "134016.045000", "134017.535000", "134019.025000", "134020.515000", "134022.005000", "134023.495000", "134024.985000", "134026.475000", "134027.965000", "134029.455000", "134030.945000", "134032.435000", "134033.925000", "134035.415000", "134036.905000", "134038.395000", "134039.885000", "134041.375000", "134042.865000", "134044.355000", "134045.845000", "134047.335000", "134048.825000", "134050.315000", "134051.805000", "134053.295000", "134054.785000", "134056.275000", "134057.765000", "134059.255000", "134100.745000", "134102.235000", "134103.725000", "134105.215000", "134106.705000", "134108.195000", "134109.685000", "134111.175000", "134112.665000", "134114.155000"],
      "ContentTime": ["133106.606000", "133106.610000", "133106.613000", "133106.631000", "133106.634000", "133106.637000", "133106.640000", "133106.643000", "133106.646000", "133106.649000", "133106.652000", "133106.655000", "133106.665000", "133106.668000", "133106.671000", "133106.674000", "133106.677000", "133106.680000", "133106.683000", "133106.686000", "133106.689000", "133106.692000", "133106.694000", "133106.698000", "133106.701000", "133106.711000", "133106.714000", "133106.717000", "133106.719000", "133106.722000", "133106.725000", "133106.728000", "133106.731000", "133106.734000", "133106.737000", "133106.740000", "133106.743000", "133126.578000", "133126.581000", "133126.584000", "133126.587000", "133126.590000", "133126.593000", "133126.596000", "133126.599000", "133126.606000", "133126.609000", "133126.612000", "133126.615000", "133126.618000", "133126.621000", "133126.624000", "133126.627000", "133126.630000", "133126.633000", "133126.636000", "133126.639000", "133146.577000", "133146.590000", "133146.593000", "133146.596000", "133146.598000", "133146.602000", "133146.605000", "133146.607000", "133146.610000", "133146.613000", "133146.616000", "133146.619000", "133146.622000", "133146.625000", "133146.628000", "133146.631000", "133146.634000", "133146.637000", "133146.640000", "133146.643000", "133206.577000", "133206.580000", "133206.583000", "133206.586000", "133206.589000", "133206.592000", "133206.595000", "133206.598000", "133206.601000", "133206.604000", "133206.607000", "133206.610000", "133206.613000", "133206.623000", "133206.626000", "133206.629000", "133206.632000", "133206.635000", "133206.638000", "133206.641000", "133246.577000", "133246.589000", "133246.592000", "133246.595000", "133246.598000", "133246.601000", "133246.604000", "133246.607000", "133246.610000", "133246.613000", "133246.616000", "133246.623000", "133246.626000", "133246.629000", "133246.632000", "133246.635000", "133246.638000", "133246.641000", "133246.644000", "133246.647000", "133246.650000", "133246.653000", "133246.656000", "133246.659000", "133246.662000", "133246.665000", "133246.668000", "133246.671000", "133246.674000", "133246.677000", "133246.679000", "133246.682000", "133326.577000", "133326.580000", "133326.583000", "133326.586000", "133326.589000", "133326.592000", "133326.595000", "133326.598000", "133326.601000", "133326.604000", "133326.609000", "133326.612000", "133326.614000", "133326.618000", "133326.621000", "133326.624000", "133326.627000", "133326.630000", "133326.633000", "133326.635000", "133326.639000", "133326.642000", "133326.645000", "133326.647000", "133326.650000", "133326.653000", "133406.577000", "133406.580000", "133406.583000", "133406.586000", "133406.596000", "133406.599000", "133406.602000", "133406.605000", "133406.608000", "133406.611000", "133406.614000", "133406.617000", "133406.620000", "133406.623000", "133406.626000", "133406.629000", "133406.631000", "133406.634000", "133406.637000", "133406.640000", "133406.643000", "133406.646000", "133406.649000", "133406.652000", "133406.655000", "133406.658000", "133406.661000", "133446.577000", "133446.580000", "133446.583000", "133446.586000", "133446.589000", "133446.592000", "133446.595000", "133446.606000", "133446.609000", "133446.612000", "133446.615000", "133446.618000", "133446.621000", "133446.624000", "133446.627000", "133446.630000", "133446.634000", "133446.636000", "133446.640000", "133446.643000", "133446.645000", "133446.648000", "133446.651000", "133446.654000", "133446.657000", "133446.660000", "133446.668000", "133526.577000", "133526.580000", "133526.583000", "133526.586000", "133526.589000", "133526.592000", "133526.601000", "133526.604000", "133526.607000", "133526.609000", "133526.612000", "133526.615000", "133526.618000", "133526.621000", "133526.624000", "133526.627000", "133526.630000", "133526.633000", "133526.636000", "133526.639000", "133526.642000", "133526.645000", "133526.648000", "133526.651000", "133526.654000", "133526.657000", "133526.660000", "133606.578000", "133606.581000", "133606.584000", "133606.587000", "133606.590000", "133606.593000", "133606.596000", "133606.599000", "133606.610000", "133606.613000", "133606.616000", "133606.619000", "133606.622000", "133606.625000", "133606.627000", "133606.631000", "133606.633000", "133606.636000", "133606.639000", "133606.642000", "133606.645000", "133606.648000", "133606.651000", "133606.654000", "133606.657000", "133606.660000", "133606.663000", "133646.577000", "133646.580000", "133646.583000", "133646.586000", "133646.589000", "133646.592000", "133646.595000", "133646.598000", "133646.601000", "133646.604000", "133646.607000", "133646.625000", "133646.627000", "133646.630000", "133646.633000", "133646.636000", "133646.639000", "133646.642000", "133646.645000", "133646.648000", "133646.651000", "133646.654000", "133646.657000", "133646.660000", "133646.663000", "133646.666000", "133646.669000", "133726.577000", "133726.580000", "133726.583000", "133726.586000", "133726.589000", "133726.592000", "133726.595000", "133726.598000", "133726.601000", "133726.604000", "133726.607000", "133726.610000", "133726.614000", "133726.617000", "133726.620000", "133726.624000", "133726.627000", "133726.630000", "133726.633000", "133726.636000", "133726.639000", "133726.642000", "133726.645000", "133726.648000", "133726.651000", "133726.654000", "133806.577000", "133806.580000", "133806.583000", "133806.586000", "133806.589000", "133806.592000", "133806.595000", "133806.598000", "133806.601000", "133806.604000", "133806.607000", "133806.611000", "133806.614000", "133806.617000", "133806.619000", "133806.623000", "133806.626000", "133806.629000", "133806.631000", "133806.635000", "133806.637000", "133806.647000", "133806.650000", "133806.654000", "133806.656000", "133806.659000", "133806.662000", "133846.577000", "133846.580000", "133846.583000", "133846.586000", "133846.589000", "133846.592000", "133846.595000", "133846.598000", "133846.601000", "133846.604000", "133846.607000", "133846.610000", "133846.613000", "133846.616000", "133846.619000", "133846.622000", "133846.625000", "133846.628000", "133846.631000", "133846.634000", "133846.637000", "133846.640000", "133846.643000", "133846.646000", "133846.649000", "133846.652000", "133846.655000", "133926.577000", "133926.580000", "133926.583000", "133926.586000", "133926.589000", "133926.592000", "133926.595000", "133926.598000", "133926.601000", "133926.604000", "133926.607000", "133926.610000", "133926.613000", "133926.616000", "133926.619000", "133926.622000", "133926.625000", "133926.628000", "133926.638000", "133926.641000", "133926.644000", "133926.647000", "133926.650000", "133926.652000", "133926.655000", "133926.658000", "133926.661000", "134006.577000", "134006.580000", "134006.583000", "134006.586000", "134006.589000", "134006.592000", "134006.595000", "134006.598000", "134006.601000", "134006.604000", "134006.607000", "134006.610000", "134006.613000", "134006.616000", "134006.619000", "134006.622000", "134006.625000", "134006.628000", "134006.631000", "134006.633000", "134006.637000", "134006.640000", "134006.643000", "134006.646000", "134006.649000", "134006.652000", "134006.654000", "134046.578000", "134046.581000", "134046.584000", "134046.587000", "134046.590000", "134046.593000", "134046.596000", "134046.599000", "134046.602000", "134046.605000", "134046.615000", "134046.618000", "134046.621000", "134046.624000", "134046.626000", "134046.630000", "134046.633000", "134046.635000", "134046.638000", "134046.642000", "134046.645000", "134046.648000", "134046.651000", "134046.654000", "134046.657000", "134046.660000", "134046.662000", "134116.143000", "134116.147000", "134116.150000", "134116.153000", "134116.156000", "134116.159000", "134116.174000", "134116.178000", "134116.189000", "134116.192000", "134116.195000", "134116.198000", "134116.201000", "134116.204000", "134116.207000", "134116.210000", "134116.213000", "134116.216000", "134116.219000", "134116.222000"],
