{
  "AcquisitionMatrixPE": 104,
  "AcquisitionNumber": 1,
  "AcquisitionTime": "13:42:14.642500",
  "BandwidthPerPixelPhaseEncode": 17.17,
  "BaseResolution": 104,
  "BodyPartExamined": "BRAIN",
  "CoilString": "HC1-7;NC1_2",
  "ConsistencyInfo": "N4_VE11C_LATEST_20160120",
  "ConversionSoftware": "dcm2niix",
  "ConversionSoftwareVersion": "v1.0.20190902",
  "DerivedVendorReportedEchoSpacing": 0.000560011,
  "DeviceSerialNumber": "167006",
  "DwellTime": 2.1e-06,
  "EchoTime": 0.037,
  "EchoTrainLength": 104,
  "EffectiveEchoSpacing": 0.000560011,
  "FlipAngle": 52,
  "ImageComments": "Unaliased_MB4_PE3_LB",
  "ImageOrientationPatientDICOM": [0.999952, 0.00797596, 0.00572399, -0.00401408, 0.864255, -0.503038],
  "ImageType": [
    "ORIGINAL",
    "PRIMARY",
    "M",
    "MB",
    "ND",
    "MOSAIC"
],
  "ImagingFrequency": 123.259,
  "InPlanePhaseEncodingDirectionDICOM": "COL",
  "InstitutionAddress": "Chemin_Queen-Mary_4565_Montreal_District_CA_H3W_1W5",
  "InstitutionName": "IUGM",
  "InstitutionalDepartmentName": "Department",
  "MRAcquisitionType": "2D",
  "MagneticFieldStrength": 3,
  "Manufacturer": "Siemens",
  "ManufacturersModelName": "Prisma_fit",
  "Modality": "MR",
  "MultibandAccelerationFactor": 4,
  "PartialFourier": 1,
  "PatientPosition": "HFS",
  "PercentPhaseFOV": 100,
  "PhaseEncodingDirection": "j",
  "PhaseEncodingSteps": 104,
  "PhaseResolution": 1,
  "PixelBandwidth": 2290,
  "ProcedureStepDescription": "language_harrypotter",
  "ProtocolName": "func_task-harrypotter_run-3",
  "PulseSequenceDetails": "%CustomerSeq%_cmrr_mbep2d_bold",
  "ReceiveCoilActiveElements": "HC1-7;NC1,2",
  "ReceiveCoilName": "HeadNeck_64",
  "ReconMatrixPE": 104,
  "RepetitionTime": 1.49,
  "SAR": 0.0352136,
  "ScanOptions": "FS",
  "ScanningSequence": "EP",
  "SequenceName": "epfid2d1_104",
  "SequenceVariant": "SK_SS",
  "SeriesDescription": "func_task-harrypotter_run-3",
  "SeriesNumber": 13,
  "ShimSetting": [619, -7203, -8872, 372, -13, -163, 42, -13],
  "SliceThickness": 2,
  "SliceTiming": [0, 0.785, 0.0975, 0.8825, 0.195, 0.98, 0.295, 1.0775, 0.3925, 1.175, 0.49, 1.275, 0.5875, 1.3725, 0.685, 0, 0.785, 0.0975, 0.8825, 0.195, 0.98, 0.295, 1.0775, 0.3925, 1.175, 0.49, 1.275, 0.5875, 1.3725, 0.685, 0, 0.785, 0.0975, 0.8825, 0.195, 0.98, 0.295, 1.0775, 0.3925, 1.175, 0.49, 1.275, 0.5875, 1.3725, 0.685, 0, 0.785, 0.0975, 0.8825, 0.195, 0.98, 0.295, 1.0775, 0.3925, 1.175, 0.49, 1.275, 0.5875, 1.3725, 0.685],
  "SoftwareVersions": "syngo_MR_E11",
  "SpacingBetweenSlices": 2,
  "StationName": "MRC35049",
  "TaskName": "harrypotter",
  "TotalReadoutTime": 0.0576811,
  "TxRefAmp": 247.867,
  "WipMemBlock": "11e05e17-b428-40a9-8278-dc6f82df7da3||Sequence: R016 ve11c/master r/e634e98; Dec 19 2017 11:00:25 by eja",
  "dcmmeta_affine": [
    [-1.9999035596847534, -0.008028155192732811, 0.017918387427926064, 107.42924499511719],
    [-0.01595192402601242, 1.7285101413726807, -1.005981206893921, -50.887489318847656],
    [0.011447971686720848, 1.0060756206512451, 1.728490948677063, -93.90111541748047],
    [0.0, 0.0, 0.0, 1.0]
],
  "dcmmeta_reorient_transform": [
    [0.0, -1.0, 0.0, 103.0],
    [1.0, 0.0, 0.0, 0.0],
    [0.0, 0.0, 1.0, 0.0],
    [0.0, 0.0, 0.0, 1.0]
],
  "dcmmeta_shape": [104, 104, 60, 373],
  "dcmmeta_slice_dim": 2,
  "dcmmeta_version": 0.6,
  "global": {
    "const": {
      "AcquisitionMatrix": [104, 0, 0, 104],
      "AngioFlag": "N",
      "BitsAllocated": 16,
      "BitsStored": 16,
      "BodyPartExamined": "BRAIN",
      "Columns": 832,
      "EchoNumbers": 1,
      "EchoTime": 37.0,
      "EchoTrainLength": 104,
      "FlipAngle": 52.0,
      "HighBit": 15,
      "ImageOrientationPatient": [0.99995180885036, 0.00797596165411, 0.00572398572482, -0.0040140776727, 0.86425508716076, -0.5030378032486],
      "ImagePositionPatient": [-831.64501457489, -762.13326340621, 371.76912831481],
      "ImageType": [
        "ORIGINAL",
        "PRIMARY",
        "M",
        "MB",
        "ND",
        "MOSAIC"
],
      "ImagedNucleus": "1H",
      "ImagingFrequency": 123.258986,
      "InPlanePhaseEncodingDirection": "COL",
      "MRAcquisitionType": "2D",
      "MagneticFieldStrength": 3.0,
      "Manufacturer": "SIEMENS",
      "ManufacturerModelName": "Prisma_fit",
      "Modality": "MR",
      "NumberOfAverages": 1.0,
      "NumberOfPhaseEncodingSteps": 104,
      "PercentPhaseFieldOfView": 100.0,
      "PercentSampling": 100.0,
      "PerformedProcedureStepStartTime": "124748.843000",
      "PhotometricInterpretation": "MONOCHROME2",
      "PixelBandwidth": 2290.0,
      "PixelRepresentation": 0,
      "PixelSpacing": [2.0, 2.0],
      "ProtocolName": "func_task-harrypotter_run-3",
      "RepetitionTime": 1490.0,
      "Rows": 832,
      "SAR": 0.03521355149557,
      "SamplesPerPixel": 1,
      "ScanOptions": "FS",
      "ScanningSequence": "EP",
      "SequenceName": "epfid2d1_104",
      "SequenceVariant": [
        "SK",
        "SS"
],
      "SeriesDescription": "func_task-harrypotter_run-3",
      "SeriesNumber": 13,
      "SeriesTime": "134346.522000",
      "SliceLocation": -54.595207762782,
      "SliceThickness": 2.0,
      "SmallestImagePixelValue": 0,
      "SoftwareVersions": "syngo MR E11",
      "SpacingBetweenSlices": 1.9999999923055,
      "SpecificCharacterSet": "ISO_IR 100",
      "StudyID": "1",
      "StudyTime": "124748.289000",
      "TransmitCoilName": "Body",
      "VariableFlipAngleFlag": "N",
      "WindowCenterWidthExplanation": "Algo1",
      "dBdt": 0.0},
    "slices": {}
  },
  "time": {
    "samples": {
      "AcquisitionNumber": [1, 2, 3, 4, 5, 6, 7, 8, 9, 10, 11, 12, 13, 14, 15, 16, 17, 18, 19, 20, 21, 22, 23, 24, 25, 26, 27, 28, 29, 30, 31, 32, 33, 34, 35, 36, 37, 38, 39, 40, 41, 42, 43, 44, 45, 46, 47, 48, 49, 50, 51, 52, 53, 54, 55, 56, 57, 58, 59, 60, 61, 62, 63, 64, 65, 66, 67, 68, 69, 70, 71, 72, 73, 74, 75, 76, 77, 78, 79, 80, 81, 82, 83, 84, 85, 86, 87, 88, 89, 90, 91, 92, 93, 94, 95, 96, 97, 98, 99, 100, 101, 102, 103, 104, 105, 106, 107, 108, 109, 110, 111, 112, 113, 114, 115, 116, 117, 118, 119, 120, 121, 122, 123, 124, 125, 126, 127, 128, 129, 130, 131, 132, 133, 134, 135, 136, 137, 138, 139, 140, 141, 142, 143, 144, 145, 146, 147, 148, 149, 150, 151, 152, 153, 154, 155, 156, 157, 158, 159, 160, 161, 162, 163, 164, 165, 166, 167, 168, 169, 170, 171, 172, 173, 174, 175, 176, 177, 178, 179, 180, 181, 182, 183, 184, 185, 186, 187, 188, 189, 190, 191, 192, 193, 194, 195, 196, 197, 198, 199, 200, 201, 202, 203, 204, 205, 206, 207, 208, 209, 210, 211, 212, 213, 214, 215, 216, 217, 218, 219, 220, 221, 222, 223, 224, 225, 226, 227, 228, 229, 230, 231, 232, 233, 234, 235, 236, 237, 238, 239, 240, 241, 242, 243, 244, 245, 246, 247, 248, 249, 250, 251, 252, 253, 254, 255, 256, 257, 258, 259, 260, 261, 262, 263, 264, 265, 266, 267, 268, 269, 270, 271, 272, 273, 274, 275, 276, 277, 278, 279, 280, 281, 282, 283, 284, 285, 286, 287, 288, 289, 290, 291, 292, 293, 294, 295, 296, 297, 298, 299, 300, 301, 302, 303, 304, 305, 306, 307, 308, 309, 310, 311, 312, 313, 314, 315, 316, 317, 318, 319, 320, 321, 322, 323, 324, 325, 326, 327, 328, 329, 330, 331, 332, 333, 334, 335, 336, 337, 338, 339, 340, 341, 342, 343, 344, 345, 346, 347, 348, 349, 350, 351, 352, 353, 354, 355, 356, 357, 358, 359, 360, 361, 362, 363, 364, 365, 366, 367, 368, 369, 370, 371, 372, 373],
      "AcquisitionTime": ["134214.642500", "134216.132500", "134217.622500", "134219.112500", "134220.602500", "134222.092500", "134223.582500", "134225.072500", "134226.562500", "134228.052500", "134229.542500", "134231.032500", "134232.522500", "134234.012500", "134235.502500", "134236.992500", "134238.482500", "134239.972500", "134241.462500", "134242.952500", "134244.442500", "134245.932500", "134247.422500", "134248.912500", "134250.402500", "134251.892500", "134253.382500", "134254.872500", "134256.362500", "134257.852500", "134259.342500", "134300.832500", "134302.322500", "134303.812500", "134305.302500", "134306.792500", "134308.282500", "134309.772500", "134311.262500", "134312.752500", "134314.242500", "134315.732500", "134317.222500", "134318.712500", "134320.202500", "134321.692500", "134323.182500", "134324.672500", "134326.162500", "134327.652500", "134329.142500", "134330.632500", "134332.122500", "134333.612500", "134335.102500", "134336.592500", "134338.082500", "134339.572500", "134341.062500", "134342.552500", "134344.042500", "134345.532500", "134347.022500", "134348.512500", "134350.002500", "134351.492500", "134352.982500", "134354.472500", "134355.962500", "134357.452500", "134358.942500", "134400.432500", "134401.922500", "134403.412500", "134404.902500", "134406.392500", "134407.882500", "134409.372500", "134410.862500", "134412.352500", "134413.842500", "134415.332500", "134416.822500", "134418.312500", "134419.802500", "134421.292500", "134422.782500", "134424.272500", "134425.762500", "134427.252500", "134428.742500", "134430.232500", "134431.722500", "134433.212500", "134434.702500", "134436.192500", "134437.682500", "134439.172500", "134440.662500", "134442.152500", "134443.642500", "134445.132500", "134446.622500", "134448.112500", "134449.602500", "134451.092500", "134452.582500", "134454.072500", "134455.562500", "134457.052500", "134458.542500", "134500.032500", "134501.522500", "134503.012500", "134504.502500", "134505.992500", "134507.482500", "134508.972500", "134510.462500", "134511.952500", "134513.442500", "134514.932500", "134516.422500", "134517.912500", "134519.402500", "134520.892500", "134522.382500", "134523.872500", "134525.362500", "134526.852500", "134528.342500", "134529.832500", "134531.322500", "134532.812500", "134534.302500", "134535.792500", "134537.282500", "134538.772500", "134540.262500", "134541.752500", "134543.242500", "134544.732500", "134546.222500", "134547.712500", "134549.202500", "134550.692500", "134552.182500", "134553.672500", "134555.162500", "134556.652500", "134558.142500", "134559.632500", "134601.122500", "134602.612500", "134604.102500", "134605.592500", "134607.082500", "134608.572500", "134610.062500", "134611.552500", "134613.042500", "134614.532500", "134616.022500", "134617.512500", "134619.002500", "134620.492500", "134621.982500", "134623.472500", "134624.962500", "134626.452500", "134627.942500", "134629.432500", "134630.922500", "134632.412500", "134633.902500", "134635.392500", "134636.882500", "134638.372500", "134639.862500", "134641.352500", "134642.842500", "134644.332500", "134645.822500", "134647.312500", "134648.802500", "134650.292500", "134651.782500", "134653.272500", "134654.762500", "134656.252500", "134657.742500", "134659.232500", "134700.722500", "134702.212500", "134703.702500", "134705.192500", "134706.682500", "134708.172500", "134709.662500", "134711.152500", "134712.642500", "134714.132500", "134715.622500", "134717.112500", "134718.602500", "134720.092500", "134721.582500", "134723.072500", "134724.562500", "134726.052500", "134727.542500", "134729.032500", "134730.522500", "134732.012500", "134733.502500", "134734.992500", "134736.482500", "134737.972500", "134739.462500", "134740.952500", "134742.442500", "134743.932500", "134745.422500", "134746.912500", "134748.402500", "134749.892500", "134751.382500", "134752.872500", "134754.362500", "134755.852500", "134757.342500", "134758.832500", "134800.322500", "134801.812500", "134803.302500", "134804.792500", "134806.282500", "134807.772500", "134809.262500", "134810.752500", "134812.242500", "134813.732500", "134815.222500", "134816.712500", "134818.202500", "134819.692500", "134821.182500", "134822.672500", "134824.162500", "134825.652500", "134827.142500", "134828.632500", "134830.122500", "134831.612500", "134833.102500", "134834.592500", "134836.082500", "134837.572500", "134839.062500", "134840.552500", "134842.042500", "134843.532500", "134845.022500", "134846.512500", "134848.002500", "134849.492500", "134850.982500", "134852.472500", "134853.962500", "134855.452500", "134856.942500", "134858.432500", "134859.922500", "134901.412500", "134902.902500", "134904.392500", "134905.882500", "134907.372500", "134908.862500", "134910.352500", "134911.842500", "134913.332500", "134914.822500", "134916.312500", "134917.802500", "134919.292500", "134920.782500", "134922.272500", "134923.762500", "134925.252500", "134926.742500", "134928.232500", "134929.722500", "134931.212500", "134932.702500", "134934.192500", "134935.682500", "134937.172500", "134938.662500", "134940.152500", "134941.642500", "134943.132500", "134944.622500", "134946.112500", "134947.602500", "134949.092500", "134950.582500", "134952.072500", "134953.562500", "134955.052500", "134956.542500", "134958.032500", "134959.522500", "135001.012500", "135002.502500", "135003.992500", "135005.482500", "135006.972500", "135008.462500", "135009.952500", "135011.442500", "135012.932500", "135014.422500", "135015.912500", "135017.402500", "135018.892500", "135020.382500", "135021.872500", "135023.362500", "135024.852500", "135026.342500", "135027.832500", "135029.322500", "135030.812500", "135032.302500", "135033.792500", "135035.282500", "135036.772500", "135038.262500", "135039.752500", "135041.242500", "135042.732500", "135044.222500", "135045.712500", "135047.202500", "135048.692500", "135050.182500", "135051.672500", "135053.162500", "135054.652500", "135056.142500", "135057.632500", "135059.122500", "135100.612500", "135102.102500", "135103.592500", "135105.082500", "135106.572500", "135108.062500", "135109.552500", "135111.042500", "135112.532500", "135114.022500", "135115.512500", "135117.002500", "135118.492500", "135119.982500", "135121.472500", "135122.962500", "135124.452500", "135125.942500", "135127.432500", "135128.922500"],
      "ContentTime": ["134346.524000", "134346.536000", "134346.539000", "134346.542000", "134346.545000", "134346.548000", "134346.551000", "134346.554000", "134346.557000", "134346.560000", "134346.563000", "134346.566000", "134346.569000", "134346.572000", "134346.575000", "134346.578000", "134346.581000", "134346.584000", "134346.587000", "134346.590000", "134346.593000", "134346.596000", "134346.599000", "134346.601000", "134346.604000", "134346.607000", "134346.610000", "134346.613000", "134346.616000", "134346.619000", "134346.622000", "134346.633000", "134346.636000", "134346.639000", "134346.642000", "134346.644000", "134346.647000", "134346.650000", "134346.653000", "134406.494000", "134406.497000", "134406.500000", "134406.512000", "134406.515000", "134406.518000", "134406.521000", "134406.524000", "134406.527000", "134406.530000", "134406.533000", "134406.536000", "134406.539000", "134406.542000", "134406.545000", "134406.548000", "134406.551000", "134406.559000", "134406.562000", "134406.565000", "134426.494000", "134426.497000", "134426.500000", "134426.503000", "134426.506000", "134426.509000", "134426.512000", "134426.515000", "134426.518000", "134426.521000", "134426.524000", "134426.527000", "134426.530000", "134426.533000", "134426.536000", "134426.539000", "134426.542000", "134426.545000", "134426.548000", "134426.551000", "134426.553000", "134446.494000", "134446.497000", "134446.500000", "134446.503000", "134446.506000", "134446.509000", "134446.512000", "134446.515000", "134446.518000", "134446.520000", "134446.524000", "134446.527000", "134446.530000", "134446.532000", "134446.535000", "134446.538000", "134446.541000", "134446.544000", "134446.547000", "134446.550000", "134526.495000", "134526.498000", "134526.502000", "134526.505000", "134526.508000", "134526.511000", "134526.514000", "134526.517000", "134526.519000", "134526.522000", "134526.525000", "134526.528000", "134526.531000", "134526.534000", "134526.537000", "134526.540000", "134526.543000", "134526.546000", "134526.549000", "134526.552000", "134526.555000", "134526.558000", "134526.561000", "134526.564000", "134526.567000", "134526.570000", "134526.573000", "134526.576000", "134606.494000", "134606.498000", "134606.502000", "134606.504000", "134606.507000", "134606.510000", "134606.513000", "134606.516000", "134606.519000", "134606.522000", "134606.525000", "134606.528000", "134606.531000", "134606.534000", "134606.537000", "134606.540000", "134606.543000", "134606.546000", "134606.549000", "134606.552000", "134606.555000", "134606.558000", "134606.561000", "134606.564000", "134606.567000", "134606.570000", "134646.494000", "134646.497000", "134646.513000", "134646.516000", "134646.518000", "134646.521000", "134646.524000", "134646.527000", "134646.539000", "134646.542000", "134646.545000", "134646.548000", "134646.551000", "134646.554000", "134646.557000", "134646.560000", "134646.563000", "134646.566000", "134646.569000", "134646.572000", "134646.575000", "134646.578000", "134646.581000", "134646.584000", "134646.587000", "134646.590000", "134646.593000", "134726.494000", "134726.497000", "134726.500000", "134726.503000", "134726.506000", "134726.509000", "134726.512000", "134726.515000", "134726.518000", "134726.521000", "134726.524000", "134726.527000", "134726.531000", "134726.534000", "134726.537000", "134726.540000", "134726.543000", "134726.546000", "134726.549000", "134726.552000", "134726.555000", "134726.558000", "134726.561000", "134726.564000", "134726.574000", "134726.577000", "134726.580000", "134806.494000", "134806.498000", "134806.501000", "134806.504000", "134806.507000", "134806.510000", "134806.513000", "134806.517000", "134806.520000", "134806.523000", "134806.526000", "134806.529000", "134806.532000", "134806.535000", "134806.538000", "134806.541000", "134806.544000", "134806.547000", "134806.550000", "134806.553000", "134806.556000", "134806.559000", "134806.562000", "134806.565000", "134806.568000", "134806.571000", "134806.574000", "134846.494000", "134846.497000", "134846.509000", "134846.512000", "134846.515000", "134846.518000", "134846.521000", "134846.524000", "134846.527000", "134846.530000", "134846.532000", "134846.536000", "134846.539000", "134846.542000", "134846.544000", "134846.548000", "134846.550000", "134846.553000", "134846.556000", "134846.560000", "134846.562000", "134846.565000", "134846.568000", "134846.571000", "134846.574000", "134846.577000", "134846.580000", "134926.494000", "134926.497000", "134926.500000", "134926.503000", "134926.506000", "134926.509000", "134926.512000", "134926.515000", "134926.518000", "134926.521000", "134926.524000", "134926.527000", "134926.530000", "134926.533000", "134926.536000", "134926.539000", "134926.542000", "134926.545000", "134926.548000", "134926.551000", "134926.554000", "134926.557000", "134926.560000", "134926.563000", "134926.566000", "134926.569000", "134926.572000", "135006.495000", "135006.498000", "135006.502000", "135006.505000", "135006.508000", "135006.511000", "135006.514000", "135006.517000", "135006.521000", "135006.524000", "135006.527000", "135006.530000", "135006.533000", "135006.536000", "135006.539000", "135006.542000", "135006.545000", "135006.548000", "135006.551000", "135006.554000", "135006.557000", "135006.560000", "135006.563000", "135006.566000", "135006.569000", "135006.572000", "135046.494000", "135046.497000", "135046.500000", "135046.503000", "135046.506000", "135046.509000", "135046.512000", "135046.515000", "135046.518000", "135046.521000", "135046.524000", "135046.527000", "135046.530000", "135046.533000", "135046.536000", "135046.539000", "135046.542000", "135046.545000", "135046.548000", "135046.551000", "135046.554000", "135046.557000", "135046.560000", "135046.563000", "135046.578000", "135046.581000", "135046.583000", "135126.494000", "135126.497000", "135126.500000", "135126.503000", "135126.506000", "135126.509000", "135126.512000", "135126.515000", "135126.518000", "135126.521000", "135126.524000", "135126.527000", "135126.530000", "135126.533000", "135126.536000", "135126.539000", "135126.542000", "135126.545000", "135126.548000", "135126.551000", "135126.554000", "135126.557000", "135126.560000", "135126.563000", "135126.566000", "135126.569000", "135126.572000", "135131.498000", "135131.502000", "135131.505000", "135131.514000"],
      "InstanceCreationTime": ["134346.524000", "134346.536000", "134346.539000", "134346.542000", "134346.545000", "134346.548000", "134346.551000", "134346.554000", "134346.557000", "134346.560000", "134346.563000", "134346.566000", "134346.569000", "134346.572000", "134346.575000", "134346.578000", "134346.581000", "134346.584000", "134346.587000", "134346.590000", "134346.593000", "134346.596000", "134346.599000", "134346.601000", "134346.604000", "134346.607000", "134346.610000", "134346.613000", "134346.616000", "134346.619000", "134346.622000", "134346.633000", "134346.636000", "134346.639000", "134346.642000", "134346.644000", "134346.647000", "134346.650000", "134346.653000", "134406.494000", "134406.497000", "134406.500000", "134406.512000", "134406.515000", "134406.518000", "134406.521000", "134406.524000", "134406.527000", "134406.530000", "134406.533000", "134406.536000", "134406.539000", "134406.542000", "134406.545000", "134406.548000", "134406.551000", "134406.559000", "134406.562000", "134406.565000", "134426.494000", "134426.497000", "134426.500000", "134426.503000", "134426.506000", "134426.509000", "134426.512000", "134426.515000", "134426.518000", "134426.521000", "134426.524000", "134426.527000", "134426.530000", "134426.533000", "134426.536000", "134426.539000", "134426.542000", "134426.545000", "134426.548000", "134426.551000", "134426.553000", "134446.494000", "134446.497000", "134446.500000", "134446.503000", "134446.506000", "134446.509000", "134446.512000", "134446.515000", "134446.518000", "134446.520000", "134446.524000", "134446.527000", "134446.530000", "134446.532000", "134446.535000", "134446.538000", "134446.541000", "134446.544000", "134446.547000", "134446.550000", "134526.495000", "134526.498000", "134526.502000", "134526.505000", "134526.508000", "134526.511000", "134526.514000", "134526.517000", "134526.519000", "134526.522000", "134526.525000", "134526.528000", "134526.531000", "134526.534000", "134526.537000", "134526.540000", "134526.543000", "134526.546000", "134526.549000", "134526.552000", "134526.555000", "134526.558000", "134526.561000", "134526.564000", "134526.567000", "134526.570000", "134526.573000", "134526.576000", "134606.494000", "134606.498000", "134606.502000", "134606.504000", "134606.507000", "134606.510000", "134606.513000", "134606.516000", "134606.519000", "134606.522000", "134606.525000", "134606.528000", "134606.531000", "134606.534000", "134606.537000", "134606.540000", "134606.543000", "134606.546000", "134606.549000", "134606.552000", "134606.555000", "134606.558000", "134606.561000", "134606.564000", "134606.567000", "134606.570000", "134646.494000", "134646.497000", "134646.513000", "134646.516000", "134646.518000", "134646.521000", "134646.524000", "134646.527000", "134646.539000", "134646.542000", "134646.545000", "134646.548000", "134646.551000", "134646.554000", "134646.557000", "134646.560000", "134646.563000", "134646.566000", "134646.569000", "134646.572000", "134646.575000", "134646.578000", "134646.581000", "134646.584000", "134646.587000", "134646.590000", "134646.593000", "134726.494000", "134726.497000", "134726.500000", "134726.503000", "134726.506000", "134726.509000", "134726.512000", "134726.515000", "134726.518000", "134726.521000", "134726.524000", "134726.527000", "134726.531000", "134726.534000", "134726.537000", "134726.540000", "134726.543000", "134726.546000", "134726.549000", "134726.552000", "134726.555000", "134726.558000", "134726.561000", "134726.564000", "134726.574000", "134726.577000", "134726.580000", "134806.494000", "134806.498000", "134806.501000", "134806.504000", "134806.507000", "134806.510000", "134806.513000", "134806.517000", "134806.520000", "134806.523000", "134806.526000", "134806.529000", "134806.532000", "134806.535000", "134806.538000", "134806.541000", "134806.544000", "134806.547000", "134806.550000", "134806.553000", "134806.556000", "134806.559000", "134806.562000", "134806.565000", "134806.568000", "134806.571000", "134806.574000", "134846.494000", "134846.497000", "134846.509000", "134846.512000", "134846.515000", "134846.518000", "134846.521000", "134846.524000", "134846.527000", "134846.530000", "134846.532000", "134846.536000", "134846.539000", "134846.542000", "134846.544000", "134846.548000", "134846.550000", "134846.553000", "134846.556000", "134846.560000", "134846.562000", "134846.565000", "134846.568000", "134846.571000", "134846.574000", "134846.577000", "134846.580000", "134926.494000", "134926.497000", "134926.500000", "134926.503000", "134926.506000", "134926.509000", "134926.512000", "134926.515000", "134926.518000", "134926.521000", "134926.524000", "134926.527000", "134926.530000", "134926.533000", "134926.536000", "134926.539000", "134926.542000", "134926.545000", "134926.548000", "134926.551000", "134926.554000", "134926.557000", "134926.560000", "134926.563000", "134926.566000", "134926.569000", "134926.572000", "135006.495000", "135006.498000", "135006.502000", "135006.505000", "135006.508000", "135006.511000", "135006.514000", "135006.517000", "135006.521000", "135006.524000", "135006.527000", "135006.530000", "135006.533000", "135006.536000", "135006.539000", "135006.542000", "135006.545000", "135006.548000", "135006.551000", "135006.554000", "135006.557000", "135006.560000", "135006.563000", "135006.566000", "135006.569000", "135006.572000", "135046.494000", "135046.497000", "135046.500000", "135046.503000", "135046.506000", "135046.509000", "135046.512000", "135046.515000", "135046.518000", "135046.521000", "135046.524000", "135046.527000", "135046.530000", "135046.533000", "135046.536000", "135046.539000", "135046.542000", "135046.545000", "135046.548000", "135046.551000", "135046.554000", "135046.557000", "135046.560000", "135046.563000", "135046.578000", "135046.581000", "135046.583000", "135126.494000", "135126.497000", "135126.500000", "135126.503000", "135126.506000", "135126.509000", "135126.512000", "135126.515000", "135126.518000", "135126.521000", "135126.524000", "135126.527000", "135126.530000", "135126.533000", "135126.536000", "135126.539000", "135126.542000", "135126.545000", "135126.548000", "135126.551000", "135126.554000", "135126.557000", "135126.560000", "135126.563000", "135126.566000", "135126.569000", "135126.572000", "135131.498000", "135131.502000", "135131.505000", "135131.514000"],
      "InstanceNumber": [1, 2, 3, 4, 5, 6, 7, 8, 9, 10, 11, 12, 13, 14, 15, 16, 17, 18, 19, 20, 21, 22, 23, 24, 25, 26, 27, 28, 29, 30, 31, 32, 33, 34, 35, 36, 37, 38, 39, 40, 41, 42, 43, 44, 45, 46, 47, 48, 49, 50, 51, 52, 53, 54, 55, 56, 57, 58, 59, 60, 61, 62, 63, 64, 65, 66, 67, 68, 69, 70, 71, 72, 73, 74, 75, 76, 77, 78, 79, 80, 81, 82, 83, 84, 85, 86, 87, 88, 89, 90, 91, 92, 93, 94, 95, 96, 97, 98, 99, 100, 101, 102, 103, 104, 105, 106, 107, 108, 109, 110, 111, 112, 113, 114, 115, 116, 117, 118, 119, 120, 121, 122, 123, 124, 125, 126, 127, 128, 129, 130, 131, 132, 133, 134, 135, 136, 137, 138, 139, 140, 141, 142, 143, 144, 145, 146, 147, 148, 149, 150, 151, 152, 153, 154, 155, 156, 157, 158, 159, 160, 161, 162, 163, 164, 165, 166, 167, 168, 169, 170, 171, 172, 173, 174, 175, 176, 177, 178, 179, 180, 181, 182, 183, 184, 185, 186, 187, 188, 189, 190, 191, 192, 193, 194, 195, 196, 197, 198, 199, 200, 201, 202, 203, 204, 205, 206, 207, 208, 209, 210, 211, 212, 213, 214, 215, 216, 217, 218, 219, 220, 221, 222, 223, 224, 225, 226, 227, 228, 229, 230, 231, 232, 233, 234, 235, 236, 237, 238, 239, 240, 241, 242, 243, 244, 245, 246, 247, 248, 249, 250, 251, 252, 253, 254, 255, 256, 257, 258, 259, 260, 261, 262, 263, 264, 265, 266, 267, 268, 269, 270, 271, 272, 273, 274, 275, 276, 277, 278, 279, 280, 281, 282, 283, 284, 285, 286, 287, 288, 289, 290, 291, 292, 293, 294, 295, 296, 297, 298, 299, 300, 301, 302, 303, 304, 305, 306, 307, 308, 309, 310, 311, 312, 313, 314, 315, 316, 317, 318, 319, 320, 321, 322, 323, 324, 325, 326, 327, 328, 329, 330, 331, 332, 333, 334, 335, 336, 337, 338, 339, 340, 341, 342, 343, 344, 345, 346, 347, 348, 349, 350, 351, 352, 353, 354, 355, 356, 357, 358, 359, 360, 361, 362, 363, 364, 365, 366, 367, 368, 369, 370, 371, 372, 373],
