{
  "AcquisitionMatrixPE": 104,
  "AcquisitionNumber": 1,
  "AcquisitionTime": "14:31:5.412500",
  "BandwidthPerPixelPhaseEncode": 17.17,
  "BaseResolution": 104,
  "BodyPartExamined": "BRAIN",
  "CoilString": "HC1-7;NC1_2",
  "ConsistencyInfo": "N4_VE11C_LATEST_20160120",
  "ConversionSoftware": "dcm2niix",
  "ConversionSoftwareVersion": "v1.0.20190902",
  "DerivedVendorReportedEchoSpacing": 0.000560011,
  "DeviceSerialNumber": "167006",
  "DwellTime": 2.1e-06,
  "EchoTime": 0.037,
  "EchoTrainLength": 104,
  "EffectiveEchoSpacing": 0.000560011,
  "FlipAngle": 52,
  "ImageComments": "Unaliased_MB4_PE3_LB",
  "ImageOrientationPatientDICOM": [0.999887, 0.000526848, 0.0150357, 0.00732973, 0.855702, -0.517418],
  "ImageType": [
    "ORIGINAL",
    "PRIMARY",
    "M",
    "MB",
    "ND",
    "MOSAIC"
],
  "ImagingFrequency": 123.259,
  "InPlanePhaseEncodingDirectionDICOM": "COL",
  "InstitutionAddress": "Chemin_Queen-Mary_4565_Montreal_District_CA_H3W_1W5",
  "InstitutionName": "IUGM",
  "InstitutionalDepartmentName": "Department",
  "MRAcquisitionType": "2D",
  "MagneticFieldStrength": 3,
  "Manufacturer": "Siemens",
  "ManufacturersModelName": "Prisma_fit",
  "Modality": "MR",
  "MultibandAccelerationFactor": 4,
  "PartialFourier": 1,
  "PatientPosition": "HFS",
  "PercentPhaseFOV": 100,
  "PhaseEncodingDirection": "j",
  "PhaseEncodingSteps": 104,
  "PhaseResolution": 1,
  "PixelBandwidth": 2290,
  "ProcedureStepDescription": "language_harrypotter",
  "ProtocolName": "func_task-harrypotter_run-6",
  "PulseSequenceDetails": "%CustomerSeq%_cmrr_mbep2d_bold",
  "ReceiveCoilActiveElements": "HC1-7;NC1,2",
  "ReceiveCoilName": "HeadNeck_64",
  "ReconMatrixPE": 104,
  "RepetitionTime": 1.49,
  "SAR": 0.0374951,
  "ScanOptions": "FS",
  "ScanningSequence": "EP",
  "SequenceName": "epfid2d1_104",
  "SequenceVariant": "SK_SS",
  "SeriesDescription": "func_task-harrypotter_run-6",
  "SeriesNumber": 26,
  "ShimSetting": [624, -7191, -8870, 315, 25, -139, 3, 22],
  "SliceThickness": 2,
  "SliceTiming": [0, 0.7825, 0.0975, 0.88, 0.195, 0.9775, 0.2925, 1.0775, 0.39, 1.175, 0.49, 1.2725, 0.5875, 1.37, 0.685, 0, 0.7825, 0.0975, 0.88, 0.195, 0.9775, 0.2925, 1.0775, 0.39, 1.175, 0.49, 1.2725, 0.5875, 1.37, 0.685, 0, 0.7825, 0.0975, 0.88, 0.195, 0.9775, 0.2925, 1.0775, 0.39, 1.175, 0.49, 1.2725, 0.5875, 1.37, 0.685, 0, 0.7825, 0.0975, 0.88, 0.195, 0.9775, 0.2925, 1.0775, 0.39, 1.175, 0.49, 1.2725, 0.5875, 1.37, 0.685],
  "SoftwareVersions": "syngo_MR_E11",
  "SpacingBetweenSlices": 2,
  "StationName": "MRC35049",
  "TaskName": "harrypotter",
  "TotalReadoutTime": 0.0576811,
  "TxRefAmp": 253.38,
  "WipMemBlock": "53c1de89-6c5d-4734-820a-7e33af8aa16f||Sequence: R016 ve11c/master r/e634e98; Dec 19 2017 11:00:25 by eja",
  "dcmmeta_affine": [
    [-1.999773621559143, 0.014659465290606022, 0.02627730742096901, 106.1102523803711],
    [-0.0010536955669522285, 1.7114031314849854, -1.0349388122558594, -50.48891067504883],
    [0.030071357265114784, 1.0348355770111084, 1.7112016677856445, -95.80215454101562],
    [0.0, 0.0, 0.0, 1.0]
],
  "dcmmeta_reorient_transform": [
    [0.0, -1.0, 0.0, 103.0],
    [1.0, 0.0, 0.0, 0.0],
    [0.0, 0.0, 1.0, 0.0],
    [0.0, 0.0, 0.0, 1.0]
],
  "dcmmeta_shape": [104, 104, 60, 453],
  "dcmmeta_slice_dim": 2,
  "dcmmeta_version": 0.6,
  "global": {
    "const": {
      "AcquisitionMatrix": [104, 0, 0, 104],
      "AngioFlag": "N",
      "BitsAllocated": 16,
      "BitsStored": 16,
      "BodyPartExamined": "BRAIN",
      "Columns": 832,
      "EchoNumbers": 1,
      "EchoTime": 37.0,
      "EchoTrainLength": 104,
      "FlipAngle": 52.0,
      "HighBit": 15,
      "ImageOrientationPatient": [0.99988681899549, 0.00052684776742, 0.01503567858495, 0.00732973248803, 0.85570153792505, -0.5174177741577],
      "ImagePositionPatient": [-840.8738300197, -749.11987090004, 376.52006956271],
      "ImageType": [
        "ORIGINAL",
        "PRIMARY",
        "M",
        "MB",
        "ND",
        "MOSAIC"
],
      "ImagedNucleus": "1H",
      "ImagingFrequency": 123.258996,
      "InPlanePhaseEncodingDirection": "COL",
      "MRAcquisitionType": "2D",
      "MagneticFieldStrength": 3.0,
      "Manufacturer": "SIEMENS",
      "ManufacturerModelName": "Prisma_fit",
      "Modality": "MR",
      "NumberOfAverages": 1.0,
      "NumberOfPhaseEncodingSteps": 104,
      "PercentPhaseFieldOfView": 100.0,
      "PercentSampling": 100.0,
      "PerformedProcedureStepStartTime": "124748.843000",
      "PhotometricInterpretation": "MONOCHROME2",
      "PixelBandwidth": 2290.0,
      "PixelRepresentation": 0,
      "PixelSpacing": [2.0, 2.0],
      "ProtocolName": "func_task-harrypotter_run-6",
      "RepetitionTime": 1490.0,
      "Rows": 832,
      "SAR": 0.03749513884206,
      "SamplesPerPixel": 1,
      "ScanOptions": "FS",
      "ScanningSequence": "EP",
      "SequenceName": "epfid2d1_104",
      "SequenceVariant": [
        "SK",
        "SS"
],
      "SeriesDescription": "func_task-harrypotter_run-6",
      "SeriesNumber": 26,
      "SeriesTime": "143237.832000",
      "SliceLocation": -54.447791962226,
      "SliceThickness": 2.0,
      "SmallestImagePixelValue": 0,
      "SoftwareVersions": "syngo MR E11",
      "SpacingBetweenSlices": 1.9999999561315,
      "SpecificCharacterSet": "ISO_IR 100",
      "StudyID": "1",
      "StudyTime": "124748.289000",
      "TransmitCoilName": "Body",
      "VariableFlipAngleFlag": "N",
      "WindowCenterWidthExplanation": "Algo1",
      "dBdt": 0.0},
    "slices": {}
  },
  "time": {
    "samples": {
      "AcquisitionNumber": [1, 2, 3, 4, 5, 6, 7, 8, 9, 10, 11, 12, 13, 14, 15, 16, 17, 18, 19, 20, 21, 22, 23, 24, 25, 26, 27, 28, 29, 30, 31, 32, 33, 34, 35, 36, 37, 38, 39, 40, 41, 42, 43, 44, 45, 46, 47, 48, 49, 50, 51, 52, 53, 54, 55, 56, 57, 58, 59, 60, 61, 62, 63, 64, 65, 66, 67, 68, 69, 70, 71, 72, 73, 74, 75, 76, 77, 78, 79, 80, 81, 82, 83, 84, 85, 86, 87, 88, 89, 90, 91, 92, 93, 94, 95, 96, 97, 98, 99, 100, 101, 102, 103, 104, 105, 106, 107, 108, 109, 110, 111, 112, 113, 114, 115, 116, 117, 118, 119, 120, 121, 122, 123, 124, 125, 126, 127, 128, 129, 130, 131, 132, 133, 134, 135, 136, 137, 138, 139, 140, 141, 142, 143, 144, 145, 146, 147, 148, 149, 150, 151, 152, 153, 154, 155, 156, 157, 158, 159, 160, 161, 162, 163, 164, 165, 166, 167, 168, 169, 170, 171, 172, 173, 174, 175, 176, 177, 178, 179, 180, 181, 182, 183, 184, 185, 186, 187, 188, 189, 190, 191, 192, 193, 194, 195, 196, 197, 198, 199, 200, 201, 202, 203, 204, 205, 206, 207, 208, 209, 210, 211, 212, 213, 214, 215, 216, 217, 218, 219, 220, 221, 222, 223, 224, 225, 226, 227, 228, 229, 230, 231, 232, 233, 234, 235, 236, 237, 238, 239, 240, 241, 242, 243, 244, 245, 246, 247, 248, 249, 250, 251, 252, 253, 254, 255, 256, 257, 258, 259, 260, 261, 262, 263, 264, 265, 266, 267, 268, 269, 270, 271, 272, 273, 274, 275, 276, 277, 278, 279, 280, 281, 282, 283, 284, 285, 286, 287, 288, 289, 290, 291, 292, 293, 294, 295, 296, 297, 298, 299, 300, 301, 302, 303, 304, 305, 306, 307, 308, 309, 310, 311, 312, 313, 314, 315, 316, 317, 318, 319, 320, 321, 322, 323, 324, 325, 326, 327, 328, 329, 330, 331, 332, 333, 334, 335, 336, 337, 338, 339, 340, 341, 342, 343, 344, 345, 346, 347, 348, 349, 350, 351, 352, 353, 354, 355, 356, 357, 358, 359, 360, 361, 362, 363, 364, 365, 366, 367, 368, 369, 370, 371, 372, 373, 374, 375, 376, 377, 378, 379, 380, 381, 382, 383, 384, 385, 386, 387, 388, 389, 390, 391, 392, 393, 394, 395, 396, 397, 398, 399, 400, 401, 402, 403, 404, 405, 406, 407, 408, 409, 410, 411, 412, 413, 414, 415, 416, 417, 418, 419, 420, 421, 422, 423, 424, 425, 426, 427, 428, 429, 430, 431, 432, 433, 434, 435, 436, 437, 438, 439, 440, 441, 442, 443, 444, 445, 446, 447, 448, 449, 450, 451, 452, 453],
      "AcquisitionTime": ["143105.412500", "143106.902500", "143108.392500", "143109.882500", "143111.372500", "143112.862500", "143114.352500", "143115.842500", "143117.332500", "143118.822500", "143120.312500", "143121.802500", "143123.292500", "143124.782500", "143126.272500", "143127.762500", "143129.252500", "143130.742500", "143132.232500", "143133.722500", "143135.212500", "143136.702500", "143138.192500", "143139.682500", "143141.172500", "143142.662500", "143144.152500", "143145.642500", "143147.132500", "143148.622500", "143150.112500", "143151.602500", "143153.092500", "143154.582500", "143156.072500", "143157.562500", "143159.052500", "143200.542500", "143202.032500", "143203.522500", "143205.012500", "143206.502500", "143207.992500", "143209.482500", "143210.972500", "143212.462500", "143213.952500", "143215.442500", "143216.932500", "143218.422500", "143219.912500", "143221.402500", "143222.892500", "143224.382500", "143225.872500", "143227.362500", "143228.852500", "143230.342500", "143231.832500", "143233.322500", "143234.812500", "143236.302500", "143237.792500", "143239.282500", "143240.772500", "143242.262500", "143243.752500", "143245.242500", "143246.732500", "143248.222500", "143249.712500", "143251.202500", "143252.692500", "143254.182500", "143255.672500", "143257.162500", "143258.652500", "143300.142500", "143301.632500", "143303.122500", "143304.612500", "143306.102500", "143307.592500", "143309.082500", "143310.572500", "143312.062500", "143313.552500", "143315.042500", "143316.532500", "143318.022500", "143319.512500", "143321.002500", "143322.492500", "143323.982500", "143325.472500", "143326.962500", "143328.452500", "143329.942500", "143331.432500", "143332.922500", "143334.412500", "143335.902500", "143337.392500", "143338.882500", "143340.372500", "143341.862500", "143343.352500", "143344.842500", "143346.332500", "143347.822500", "143349.312500", "143350.802500", "143352.292500", "143353.782500", "143355.272500", "143356.762500", "143358.252500", "143359.742500", "143401.232500", "143402.722500", "143404.212500", "143405.702500", "143407.192500", "143408.682500", "143410.172500", "143411.662500", "143413.152500", "143414.642500", "143416.132500", "143417.622500", "143419.112500", "143420.602500", "143422.092500", "143423.582500", "143425.072500", "143426.562500", "143428.052500", "143429.542500", "143431.032500", "143432.522500", "143434.012500", "143435.502500", "143436.992500", "143438.482500", "143439.972500", "143441.462500", "143442.952500", "143444.442500", "143445.932500", "143447.422500", "143448.912500", "143450.402500", "143451.892500", "143453.382500", "143454.872500", "143456.362500", "143457.852500", "143459.342500", "143500.832500", "143502.322500", "143503.812500", "143505.302500", "143506.792500", "143508.282500", "143509.772500", "143511.262500", "143512.752500", "143514.242500", "143515.732500", "143517.222500", "143518.712500", "143520.202500", "143521.692500", "143523.182500", "143524.672500", "143526.162500", "143527.652500", "143529.142500", "143530.632500", "143532.122500", "143533.612500", "143535.102500", "143536.592500", "143538.082500", "143539.572500", "143541.062500", "143542.552500", "143544.042500", "143545.532500", "143547.022500", "143548.512500", "143550.002500", "143551.492500", "143552.982500", "143554.472500", "143555.962500", "143557.452500", "143558.942500", "143600.432500", "143601.922500", "143603.412500", "143604.902500", "143606.392500", "143607.882500", "143609.372500", "143610.862500", "143612.352500", "143613.842500", "143615.332500", "143616.822500", "143618.312500", "143619.802500", "143621.292500", "143622.782500", "143624.272500", "143625.762500", "143627.252500", "143628.742500", "143630.232500", "143631.722500", "143633.212500", "143634.702500", "143636.192500", "143637.682500", "143639.172500", "143640.662500", "143642.152500", "143643.642500", "143645.132500", "143646.622500", "143648.112500", "143649.602500", "143651.092500", "143652.582500", "143654.072500", "143655.562500", "143657.052500", "143658.542500", "143700.032500", "143701.522500", "143703.012500", "143704.502500", "143705.992500", "143707.482500", "143708.972500", "143710.462500", "143711.952500", "143713.442500", "143714.932500", "143716.422500", "143717.912500", "143719.402500", "143720.892500", "143722.382500", "143723.872500", "143725.362500", "143726.852500", "143728.342500", "143729.832500", "143731.322500", "143732.812500", "143734.302500", "143735.792500", "143737.282500", "143738.772500", "143740.262500", "143741.752500", "143743.242500", "143744.732500", "143746.222500", "143747.712500", "143749.202500", "143750.692500", "143752.182500", "143753.672500", "143755.162500", "143756.652500", "143758.142500", "143759.632500", "143801.122500", "143802.612500", "143804.102500", "143805.592500", "143807.082500", "143808.572500", "143810.062500", "143811.552500", "143813.042500", "143814.532500", "143816.022500", "143817.512500", "143819.002500", "143820.492500", "143821.982500", "143823.472500", "143824.962500", "143826.452500", "143827.942500", "143829.432500", "143830.922500", "143832.412500", "143833.902500", "143835.392500", "143836.882500", "143838.372500", "143839.862500", "143841.352500", "143842.842500", "143844.332500", "143845.822500", "143847.312500", "143848.802500", "143850.292500", "143851.782500", "143853.272500", "143854.762500", "143856.252500", "143857.742500", "143859.232500", "143900.722500", "143902.212500", "143903.702500", "143905.192500", "143906.682500", "143908.172500", "143909.662500", "143911.152500", "143912.642500", "143914.132500", "143915.622500", "143917.112500", "143918.602500", "143920.092500", "143921.582500", "143923.072500", "143924.562500", "143926.052500", "143927.542500", "143929.032500", "143930.522500", "143932.012500", "143933.502500", "143934.992500", "143936.482500", "143937.972500", "143939.462500", "143940.952500", "143942.442500", "143943.932500", "143945.422500", "143946.912500", "143948.402500", "143949.892500", "143951.382500", "143952.872500", "143954.362500", "143955.852500", "143957.342500", "143958.832500", "144000.322500", "144001.812500", "144003.302500", "144004.792500", "144006.282500", "144007.772500", "144009.262500", "144010.752500", "144012.242500", "144013.732500", "144015.222500", "144016.712500", "144018.202500", "144019.692500", "144021.182500", "144022.672500", "144024.162500", "144025.652500", "144027.142500", "144028.632500", "144030.122500", "144031.612500", "144033.102500", "144034.592500", "144036.082500", "144037.572500", "144039.062500", "144040.552500", "144042.042500", "144043.532500", "144045.022500", "144046.512500", "144048.002500", "144049.492500", "144050.982500", "144052.472500", "144053.962500", "144055.452500", "144056.942500", "144058.432500", "144059.922500", "144101.412500", "144102.902500", "144104.392500", "144105.882500", "144107.372500", "144108.862500", "144110.352500", "144111.842500", "144113.332500", "144114.822500", "144116.312500", "144117.802500", "144119.292500", "144120.782500", "144122.272500", "144123.762500", "144125.252500", "144126.742500", "144128.232500", "144129.722500", "144131.212500", "144132.702500", "144134.192500", "144135.682500", "144137.172500", "144138.662500", "144140.152500", "144141.642500", "144143.132500", "144144.622500", "144146.112500", "144147.602500", "144149.092500", "144150.582500", "144152.072500", "144153.562500", "144155.052500", "144156.542500", "144158.032500", "144159.522500", "144201.012500", "144202.502500", "144203.992500", "144205.482500", "144206.972500", "144208.462500", "144209.952500", "144211.442500", "144212.932500", "144214.422500", "144215.912500", "144217.402500", "144218.892500"],
      "ContentTime": ["143237.835000", "143237.838000", "143237.841000", "143237.844000", "143237.847000", "143237.850000", "143237.853000", "143237.856000", "143237.869000", "143237.872000", "143237.875000", "143237.878000", "143237.881000", "143237.884000", "143237.887000", "143237.889000", "143237.892000", "143237.895000", "143237.898000", "143237.901000", "143237.904000", "143237.920000", "143237.923000", "143237.926000", "143237.929000", "143237.932000", "143237.935000", "143237.938000", "143237.941000", "143237.944000", "143237.947000", "143237.950000", "143237.953000", "143237.955000", "143237.958000", "143237.961000", "143237.964000", "143237.967000", "143257.806000", "143257.809000", "143257.812000", "143257.843000", "143257.846000", "143257.849000", "143257.852000", "143257.855000", "143257.858000", "143257.861000", "143257.864000", "143257.867000", "143257.870000", "143257.873000", "143257.876000", "143257.879000", "143257.881000", "143257.884000", "143257.887000", "143257.890000", "143317.806000", "143317.809000", "143317.812000", "143317.815000", "143317.818000", "143317.821000", "143317.824000", "143317.827000", "143317.830000", "143317.832000", "143317.835000", "143317.838000", "143317.841000", "143317.844000", "143317.847000", "143317.850000", "143317.853000", "143317.856000", "143317.859000", "143317.862000", "143317.865000", "143337.806000", "143337.809000", "143337.812000", "143337.815000", "143337.818000", "143337.821000", "143337.824000", "143337.827000", "143337.830000", "143337.833000", "143337.836000", "143337.839000", "143337.841000", "143337.844000", "143337.848000", "143337.850000", "143337.853000", "143337.856000", "143337.859000", "143337.862000", "143417.805000", "143417.808000", "143417.811000", "143417.814000", "143417.817000", "143417.820000", "143417.823000", "143417.826000", "143417.829000", "143417.832000", "143417.835000", "143417.838000", "143417.841000", "143417.844000", "143417.847000", "143417.850000", "143417.853000", "143417.856000", "143417.859000", "143417.862000", "143417.865000", "143417.868000", "143417.870000", "143417.873000", "143417.876000", "143417.879000", "143417.882000", "143417.885000", "143417.888000", "143457.806000", "143457.809000", "143457.812000", "143457.815000", "143457.818000", "143457.821000", "143457.824000", "143457.827000", "143457.830000", "143457.833000", "143457.835000", "143457.838000", "143457.841000", "143457.844000", "143457.847000", "143457.850000", "143457.853000", "143457.856000", "143457.859000", "143457.861000", "143457.864000", "143457.867000", "143457.878000", "143457.881000", "143457.884000", "143457.887000", "143457.891000", "143537.806000", "143537.809000", "143537.812000", "143537.818000", "143537.821000", "143537.824000", "143537.827000", "143537.830000", "143537.833000", "143537.836000", "143537.839000", "143537.842000", "143537.845000", "143537.848000", "143537.851000", "143537.854000", "143537.857000", "143537.860000", "143537.874000", "143537.877000", "143537.880000", "143537.890000", "143537.892000", "143537.895000", "143537.898000", "143537.901000", "143537.904000", "143617.806000", "143617.810000", "143617.814000", "143617.817000", "143617.825000", "143617.829000", "143617.831000", "143617.834000", "143617.837000", "143617.840000", "143617.843000", "143617.846000", "143617.849000", "143617.852000", "143617.855000", "143617.861000", "143617.864000", "143617.867000", "143617.870000", "143617.873000", "143617.876000", "143617.879000", "143617.881000", "143617.884000", "143617.887000", "143617.890000", "143617.893000", "143657.805000", "143657.808000", "143657.811000", "143657.814000", "143657.817000", "143657.820000", "143657.823000", "143657.826000", "143657.829000", "143657.832000", "143657.835000", "143657.838000", "143657.841000", "143657.844000", "143657.847000", "143657.850000", "143657.853000", "143657.856000", "143657.859000", "143657.862000", "143657.865000", "143657.868000", "143657.871000", "143657.874000", "143657.877000", "143657.880000", "143657.883000", "143737.806000", "143737.809000", "143737.818000", "143737.821000", "143737.824000", "143737.826000", "143737.830000", "143737.832000", "143737.835000", "143737.838000", "143737.841000", "143737.844000", "143737.847000", "143737.850000", "143737.853000", "143737.856000", "143737.859000", "143737.862000", "143737.865000", "143737.873000", "143737.876000", "143737.879000", "143737.882000", "143737.885000", "143737.887000", "143737.890000", "143737.893000", "143817.806000", "143817.809000", "143817.812000", "143817.815000", "143817.818000", "143817.821000", "143817.824000", "143817.827000", "143817.830000", "143817.833000", "143817.835000", "143817.839000", "143817.843000", "143817.846000", "143817.848000", "143817.851000", "143817.854000", "143817.857000", "143817.860000", "143817.863000", "143817.866000", "143817.869000", "143817.872000", "143817.875000", "143817.878000", "143817.881000", "143857.805000", "143857.808000", "143857.811000", "143857.814000", "143857.817000", "143857.820000", "143857.823000", "143857.826000", "143857.829000", "143857.832000", "143857.835000", "143857.838000", "143857.841000", "143857.844000", "143857.847000", "143857.850000", "143857.853000", "143857.856000", "143857.859000", "143857.862000", "143857.865000", "143857.868000", "143857.871000", "143857.874000", "143857.877000", "143857.880000", "143857.882000", "143937.806000", "143937.809000", "143937.812000", "143937.815000", "143937.818000", "143937.821000", "143937.824000", "143937.827000", "143937.830000", "143937.833000", "143937.836000", "143937.839000", "143937.842000", "143937.845000", "143937.848000", "143937.851000", "143937.854000", "143937.856000", "143937.860000", "143937.863000", "143937.866000", "143937.869000", "143937.872000", "143937.875000", "143937.878000", "143937.881000", "143937.884000", "144017.806000", "144017.809000", "144017.812000", "144017.815000", "144017.818000", "144017.821000", "144017.824000", "144017.827000", "144017.830000", "144017.833000", "144017.836000", "144017.839000", "144017.842000", "144017.845000", "144017.848000", "144017.851000", "144017.854000", "144017.857000", "144017.860000", "144017.881000", "144017.883000", "144017.894000", "144017.896000", "144017.899000", "144017.902000", "144017.905000", "144017.908000", "144057.806000", "144057.809000", "144057.812000", "144057.815000", "144057.818000", "144057.821000", "144057.824000", "144057.827000", "144057.830000", "144057.833000", "144057.836000", "144057.839000", "144057.842000", "144057.845000", "144057.848000", "144057.851000", "144057.854000", "144057.857000", "144057.860000", "144057.863000", "144057.866000", "144057.869000", "144057.872000", "144057.875000", "144057.878000", "144057.881000", "144057.884000", "144137.805000", "144137.808000", "144137.811000", "144137.814000", "144137.817000", "144137.820000", "144137.823000", "144137.826000", "144137.829000", "144137.832000", "144137.835000", "144137.838000", "144137.841000", "144137.844000", "144137.847000", "144137.850000", "144137.853000", "144137.856000", "144137.859000", "144137.862000", "144137.864000", "144137.867000", "144137.870000", "144137.873000", "144137.876000", "144137.879000", "144137.882000", "144217.806000", "144217.809000", "144217.812000", "144217.815000", "144217.818000", "144217.821000", "144217.824000", "144217.827000", "144217.830000", "144217.833000", "144217.836000", "144217.839000", "144217.842000", "144217.845000", "144217.848000", "144217.851000", "144217.854000", "144217.858000", "144217.862000", "144217.865000", "144217.868000", "144217.871000", "144217.874000", "144217.877000", "144217.880000", "144217.883000", "144220.906000", "144220.910000", "144220.913000"],
