{
  "AcquisitionMatrixPE": 104,
  "AcquisitionNumber": 1,
  "AcquisitionTime": "16:22:14.885000",
  "BandwidthPerPixelPhaseEncode": 17.17,
  "BaseResolution": 104,
  "BodyPartExamined": "BRAIN",
  "CoilString": "HC1-7;NC1_2",
  "ConsistencyInfo": "N4_VE11C_LATEST_20160120",
  "ConversionSoftware": "dcm2niix",
  "ConversionSoftwareVersion": "v1.0.20190902",
  "DerivedVendorReportedEchoSpacing": 0.000560011,
  "DeviceSerialNumber": "167006",
  "DwellTime": 2.1e-06,
  "EchoTime": 0.037,
  "EchoTrainLength": 104,
  "EffectiveEchoSpacing": 0.000560011,
  "FlipAngle": 52,
  "ImageComments": "Unaliased_MB4_PE3_LB",
  "ImageOrientationPatientDICOM": [0.999791, -0.0193367, 0.0066493, 0.0204189, 0.92678, -0.375049],
  "ImageType": [
    "ORIGINAL",
    "PRIMARY",
    "M",
    "MB",
    "ND",
    "MOSAIC"
],
  "ImagingFrequency": 123.259,
  "InPlanePhaseEncodingDirectionDICOM": "COL",
  "InstitutionAddress": "Chemin_Queen-Mary_4565_Montreal_District_CA_H3W_1W5",
  "InstitutionName": "IUGM",
  "InstitutionalDepartmentName": "Department",
  "MRAcquisitionType": "2D",
  "MagneticFieldStrength": 3,
  "Manufacturer": "Siemens",
  "ManufacturersModelName": "Prisma_fit",
  "Modality": "MR",
  "MultibandAccelerationFactor": 4,
  "PartialFourier": 1,
  "PatientPosition": "HFS",
  "PercentPhaseFOV": 100,
  "PhaseEncodingDirection": "j",
  "PhaseEncodingSteps": 104,
  "PhaseResolution": 1,
  "PixelBandwidth": 2290,
  "ProcedureStepDescription": "language_harrypotter",
  "ProtocolName": "func_task-harrypotter_run-4",
  "PulseSequenceDetails": "%CustomerSeq%_cmrr_mbep2d_bold",
  "ReceiveCoilActiveElements": "HC1-7;NC1,2",
  "ReceiveCoilName": "HeadNeck_64",
  "ReconMatrixPE": 104,
  "RepetitionTime": 1.49,
  "SAR": 0.0310281,
  "ScanOptions": "FS",
  "ScanningSequence": "EP",
  "SequenceName": "epfid2d1_104",
  "SequenceVariant": "SK_SS",
  "SeriesDescription": "func_task-harrypotter_run-4",
  "SeriesNumber": 17,
  "ShimSetting": [628, -7252, -8834, 591, 1, -236, -69, -9],
  "SliceThickness": 2,
  "SliceTiming": [0, 0.7825, 0.0975, 0.8825, 0.195, 0.98, 0.2925, 1.0775, 0.3925, 1.175, 0.49, 1.2725, 0.5875, 1.3725, 0.685, 0, 0.7825, 0.0975, 0.8825, 0.195, 0.98, 0.2925, 1.0775, 0.3925, 1.175, 0.49, 1.2725, 0.5875, 1.3725, 0.685, 0, 0.7825, 0.0975, 0.8825, 0.195, 0.98, 0.2925, 1.0775, 0.3925, 1.175, 0.49, 1.2725, 0.5875, 1.3725, 0.685, 0, 0.7825, 0.0975, 0.8825, 0.195, 0.98, 0.2925, 1.0775, 0.3925, 1.175, 0.49, 1.2725, 0.5875, 1.3725, 0.685],
  "SoftwareVersions": "syngo_MR_E11",
  "SpacingBetweenSlices": 2,
  "StationName": "MRC35049",
  "TaskName": "harrypotter",
  "TotalReadoutTime": 0.0576811,
  "TxRefAmp": 219.786,
  "WipMemBlock": "ece3678f-e293-48a3-af77-30e879b8f76d||Sequence: R016 ve11c/master r/e634e98; Dec 19 2017 11:00:25 by eja",
  "dcmmeta_affine": [
    [-1.9995818138122559, 0.040837839245796204, -0.0021795202046632767, 105.08019256591797],
    [0.03867333009839058, 1.853559970855713, -0.7502131462097168, -63.70176696777344],
    [0.013298607431352139, 0.750098466873169, 1.8539620637893677, -69.67892456054688],
    [0.0, 0.0, 0.0, 1.0]
],
  "dcmmeta_reorient_transform": [
    [0.0, -1.0, 0.0, 103.0],
    [1.0, 0.0, 0.0, 0.0],
    [0.0, 0.0, 1.0, 0.0],
    [0.0, 0.0, 0.0, 1.0]
],
  "dcmmeta_shape": [104, 104, 60, 509],
  "dcmmeta_slice_dim": 2,
  "dcmmeta_version": 0.6,
  "global": {
    "const": {
      "AcquisitionMatrix": [104, 0, 0, 104],
      "AngioFlag": "N",
      "BitsAllocated": 16,
      "BitsStored": 16,
      "BodyPartExamined": "BRAIN",
      "Columns": 832,
      "EchoNumbers": 1,
      "EchoTime": 37.0,
      "EchoTrainLength": 104,
      "FlipAngle": 52.0,
      "HighBit": 15,
      "ImageOrientationPatient": [0.99979091820163, -0.0193366657061, 0.00664930379229, 0.02041892025899, 0.92677998320126, -0.3750492373448],
      "ImagePositionPatient": [-851.99925485545, -787.8336452097, 275.77637243178],
      "ImageType": [
        "ORIGINAL",
        "PRIMARY",
        "M",
        "MB",
        "ND",
        "MOSAIC"
],
      "ImagedNucleus": "1H",
      "ImagingFrequency": 123.258973,
      "InPlanePhaseEncodingDirection": "COL",
      "MRAcquisitionType": "2D",
      "MagneticFieldStrength": 3.0,
      "Manufacturer": "SIEMENS",
      "ManufacturerModelName": "Prisma_fit",
      "Modality": "MR",
      "NumberOfAverages": 1.0,
      "NumberOfPhaseEncodingSteps": 104,
      "PercentPhaseFieldOfView": 100.0,
      "PercentSampling": 100.0,
      "PerformedProcedureStepStartTime": "151905.512000",
      "PhotometricInterpretation": "MONOCHROME2",
      "PixelBandwidth": 2290.0,
      "PixelRepresentation": 0,
      "PixelSpacing": [2.0, 2.0],
      "ProtocolName": "func_task-harrypotter_run-4",
      "RepetitionTime": 1490.0,
      "Rows": 832,
      "SAR": 0.03102809617765,
      "SamplesPerPixel": 1,
      "ScanOptions": "FS",
      "ScanningSequence": "EP",
      "SequenceName": "epfid2d1_104",
      "SequenceVariant": [
        "SK",
        "SS"
],
      "SeriesDescription": "func_task-harrypotter_run-4",
      "SeriesNumber": 17,
      "SeriesTime": "162346.606000",
      "SliceLocation": -40.810599570634,
      "SliceThickness": 2.0,
      "SmallestImagePixelValue": 0,
      "SoftwareVersions": "syngo MR E11",
      "SpacingBetweenSlices": 1.9999999564556,
      "SpecificCharacterSet": "ISO_IR 100",
      "StudyID": "1",
      "StudyTime": "151905.401000",
      "TransmitCoilName": "Body",
      "VariableFlipAngleFlag": "N",
      "WindowCenterWidthExplanation": "Algo1",
      "dBdt": 0.0},
    "slices": {}
  },
  "time": {
    "samples": {
      "AcquisitionNumber": [1, 2, 3, 4, 5, 6, 7, 8, 9, 10, 11, 12, 13, 14, 15, 16, 17, 18, 19, 20, 21, 22, 23, 24, 25, 26, 27, 28, 29, 30, 31, 32, 33, 34, 35, 36, 37, 38, 39, 40, 41, 42, 43, 44, 45, 46, 47, 48, 49, 50, 51, 52, 53, 54, 55, 56, 57, 58, 59, 60, 61, 62, 63, 64, 65, 66, 67, 68, 69, 70, 71, 72, 73, 74, 75, 76, 77, 78, 79, 80, 81, 82, 83, 84, 85, 86, 87, 88, 89, 90, 91, 92, 93, 94, 95, 96, 97, 98, 99, 100, 101, 102, 103, 104, 105, 106, 107, 108, 109, 110, 111, 112, 113, 114, 115, 116, 117, 118, 119, 120, 121, 122, 123, 124, 125, 126, 127, 128, 129, 130, 131, 132, 133, 134, 135, 136, 137, 138, 139, 140, 141, 142, 143, 144, 145, 146, 147, 148, 149, 150, 151, 152, 153, 154, 155, 156, 157, 158, 159, 160, 161, 162, 163, 164, 165, 166, 167, 168, 169, 170, 171, 172, 173, 174, 175, 176, 177, 178, 179, 180, 181, 182, 183, 184, 185, 186, 187, 188, 189, 190, 191, 192, 193, 194, 195, 196, 197, 198, 199, 200, 201, 202, 203, 204, 205, 206, 207, 208, 209, 210, 211, 212, 213, 214, 215, 216, 217, 218, 219, 220, 221, 222, 223, 224, 225, 226, 227, 228, 229, 230, 231, 232, 233, 234, 235, 236, 237, 238, 239, 240, 241, 242, 243, 244, 245, 246, 247, 248, 249, 250, 251, 252, 253, 254, 255, 256, 257, 258, 259, 260, 261, 262, 263, 264, 265, 266, 267, 268, 269, 270, 271, 272, 273, 274, 275, 276, 277, 278, 279, 280, 281, 282, 283, 284, 285, 286, 287, 288, 289, 290, 291, 292, 293, 294, 295, 296, 297, 298, 299, 300, 301, 302, 303, 304, 305, 306, 307, 308, 309, 310, 311, 312, 313, 314, 315, 316, 317, 318, 319, 320, 321, 322, 323, 324, 325, 326, 327, 328, 329, 330, 331, 332, 333, 334, 335, 336, 337, 338, 339, 340, 341, 342, 343, 344, 345, 346, 347, 348, 349, 350, 351, 352, 353, 354, 355, 356, 357, 358, 359, 360, 361, 362, 363, 364, 365, 366, 367, 368, 369, 370, 371, 372, 373, 374, 375, 376, 377, 378, 379, 380, 381, 382, 383, 384, 385, 386, 387, 388, 389, 390, 391, 392, 393, 394, 395, 396, 397, 398, 399, 400, 401, 402, 403, 404, 405, 406, 407, 408, 409, 410, 411, 412, 413, 414, 415, 416, 417, 418, 419, 420, 421, 422, 423, 424, 425, 426, 427, 428, 429, 430, 431, 432, 433, 434, 435, 436, 437, 438, 439, 440, 441, 442, 443, 444, 445, 446, 447, 448, 449, 450, 451, 452, 453, 454, 455, 456, 457, 458, 459, 460, 461, 462, 463, 464, 465, 466, 467, 468, 469, 470, 471, 472, 473, 474, 475, 476, 477, 478, 479, 480, 481, 482, 483, 484, 485, 486, 487, 488, 489, 490, 491, 492, 493, 494, 495, 496, 497, 498, 499, 500, 501, 502, 503, 504, 505, 506, 507, 508, 509],
      "AcquisitionTime": ["162214.885000", "162216.375000", "162217.865000", "162219.355000", "162220.845000", "162222.335000", "162223.825000", "162225.315000", "162226.805000", "162228.295000", "162229.785000", "162231.275000", "162232.765000", "162234.255000", "162235.745000", "162237.235000", "162238.725000", "162240.215000", "162241.705000", "162243.195000", "162244.685000", "162246.175000", "162247.665000", "162249.155000", "162250.645000", "162252.135000", "162253.625000", "162255.115000", "162256.605000", "162258.095000", "162259.585000", "162301.075000", "162302.565000", "162304.055000", "162305.545000", "162307.035000", "162308.525000", "162310.015000", "162311.505000", "162312.995000", "162314.485000", "162315.975000", "162317.465000", "162318.955000", "162320.445000", "162321.935000", "162323.425000", "162324.915000", "162326.405000", "162327.895000", "162329.385000", "162330.875000", "162332.365000", "162333.855000", "162335.345000", "162336.835000", "162338.325000", "162339.815000", "162341.305000", "162342.795000", "162344.285000", "162345.775000", "162347.265000", "162348.755000", "162350.245000", "162351.735000", "162353.225000", "162354.715000", "162356.205000", "162357.695000", "162359.185000", "162400.675000", "162402.165000", "162403.655000", "162405.145000", "162406.635000", "162408.125000", "162409.615000", "162411.105000", "162412.595000", "162414.085000", "162415.575000", "162417.065000", "162418.555000", "162420.045000", "162421.535000", "162423.025000", "162424.515000", "162426.005000", "162427.495000", "162428.985000", "162430.475000", "162431.965000", "162433.455000", "162434.945000", "162436.435000", "162437.925000", "162439.415000", "162440.905000", "162442.395000", "162443.885000", "162445.375000", "162446.865000", "162448.355000", "162449.845000", "162451.335000", "162452.825000", "162454.315000", "162455.805000", "162457.295000", "162458.785000", "162500.275000", "162501.765000", "162503.255000", "162504.745000", "162506.235000", "162507.725000", "162509.215000", "162510.705000", "162512.195000", "162513.685000", "162515.175000", "162516.665000", "162518.155000", "162519.645000", "162521.135000", "162522.625000", "162524.115000", "162525.605000", "162527.095000", "162528.585000", "162530.075000", "162531.565000", "162533.055000", "162534.545000", "162536.035000", "162537.525000", "162539.015000", "162540.505000", "162541.995000", "162543.485000", "162544.975000", "162546.465000", "162547.955000", "162549.445000", "162550.935000", "162552.425000", "162553.915000", "162555.405000", "162556.895000", "162558.385000", "162559.875000", "162601.365000", "162602.855000", "162604.345000", "162605.835000", "162607.325000", "162608.815000", "162610.305000", "162611.795000", "162613.285000", "162614.775000", "162616.265000", "162617.755000", "162619.245000", "162620.735000", "162622.225000", "162623.715000", "162625.205000", "162626.695000", "162628.185000", "162629.675000", "162631.165000", "162632.655000", "162634.145000", "162635.635000", "162637.125000", "162638.615000", "162640.105000", "162641.595000", "162643.085000", "162644.575000", "162646.065000", "162647.555000", "162649.045000", "162650.535000", "162652.025000", "162653.515000", "162655.005000", "162656.495000", "162657.985000", "162659.475000", "162700.965000", "162702.455000", "162703.945000", "162705.435000", "162706.925000", "162708.415000", "162709.905000", "162711.395000", "162712.885000", "162714.375000", "162715.865000", "162717.355000", "162718.845000", "162720.335000", "162721.825000", "162723.315000", "162724.805000", "162726.295000", "162727.785000", "162729.275000", "162730.765000", "162732.255000", "162733.745000", "162735.235000", "162736.725000", "162738.215000", "162739.705000", "162741.195000", "162742.685000", "162744.175000", "162745.665000", "162747.155000", "162748.645000", "162750.135000", "162751.625000", "162753.115000", "162754.605000", "162756.095000", "162757.585000", "162759.075000", "162800.565000", "162802.055000", "162803.545000", "162805.035000", "162806.525000", "162808.015000", "162809.505000", "162810.995000", "162812.485000", "162813.975000", "162815.465000", "162816.955000", "162818.445000", "162819.935000", "162821.425000", "162822.915000", "162824.405000", "162825.895000", "162827.385000", "162828.875000", "162830.365000", "162831.855000", "162833.345000", "162834.835000", "162836.325000", "162837.815000", "162839.305000", "162840.795000", "162842.285000", "162843.775000", "162845.265000", "162846.755000", "162848.245000", "162849.735000", "162851.225000", "162852.715000", "162854.205000", "162855.695000", "162857.185000", "162858.675000", "162900.165000", "162901.655000", "162903.145000", "162904.635000", "162906.125000", "162907.615000", "162909.105000", "162910.595000", "162912.085000", "162913.575000", "162915.065000", "162916.555000", "162918.045000", "162919.535000", "162921.025000", "162922.515000", "162924.005000", "162925.495000", "162926.985000", "162928.475000", "162929.965000", "162931.455000", "162932.945000", "162934.435000", "162935.925000", "162937.415000", "162938.905000", "162940.395000", "162941.885000", "162943.375000", "162944.865000", "162946.355000", "162947.845000", "162949.335000", "162950.825000", "162952.315000", "162953.805000", "162955.295000", "162956.785000", "162958.275000", "162959.765000", "163001.255000", "163002.745000", "163004.235000", "163005.725000", "163007.215000", "163008.705000", "163010.195000", "163011.685000", "163013.175000", "163014.665000", "163016.155000", "163017.645000", "163019.135000", "163020.625000", "163022.115000", "163023.605000", "163025.095000", "163026.585000", "163028.075000", "163029.565000", "163031.055000", "163032.545000", "163034.035000", "163035.525000", "163037.015000", "163038.505000", "163039.995000", "163041.485000", "163042.975000", "163044.465000", "163045.955000", "163047.445000", "163048.935000", "163050.425000", "163051.915000", "163053.405000", "163054.895000", "163056.385000", "163057.875000", "163059.365000", "163100.855000", "163102.345000", "163103.835000", "163105.325000", "163106.815000", "163108.305000", "163109.795000", "163111.285000", "163112.775000", "163114.265000", "163115.755000", "163117.245000", "163118.735000", "163120.225000", "163121.715000", "163123.205000", "163124.695000", "163126.185000", "163127.675000", "163129.165000", "163130.655000", "163132.145000", "163133.635000", "163135.125000", "163136.615000", "163138.105000", "163139.595000", "163141.085000", "163142.575000", "163144.065000", "163145.555000", "163147.045000", "163148.535000", "163150.025000", "163151.515000", "163153.005000", "163154.495000", "163155.985000", "163157.475000", "163158.965000", "163200.455000", "163201.945000", "163203.435000", "163204.925000", "163206.415000", "163207.905000", "163209.395000", "163210.885000", "163212.375000", "163213.865000", "163215.355000", "163216.845000", "163218.335000", "163219.825000", "163221.315000", "163222.805000", "163224.295000", "163225.785000", "163227.275000", "163228.765000", "163230.255000", "163231.745000", "163233.235000", "163234.725000", "163236.215000", "163237.705000", "163239.195000", "163240.685000", "163242.175000", "163243.665000", "163245.155000", "163246.645000", "163248.135000", "163249.625000", "163251.115000", "163252.605000", "163254.095000", "163255.585000", "163257.075000", "163258.565000", "163300.055000", "163301.545000", "163303.035000", "163304.525000", "163306.015000", "163307.505000", "163308.995000", "163310.485000", "163311.975000", "163313.465000", "163314.955000", "163316.445000", "163317.935000", "163319.425000", "163320.915000", "163322.405000", "163323.895000", "163325.385000", "163326.875000", "163328.365000", "163329.855000", "163331.345000", "163332.835000", "163334.325000", "163335.815000", "163337.305000", "163338.795000", "163340.285000", "163341.775000", "163343.265000", "163344.755000", "163346.245000", "163347.735000", "163349.225000", "163350.715000", "163352.205000", "163353.695000", "163355.185000", "163356.675000", "163358.165000", "163359.655000", "163401.145000", "163402.635000", "163404.125000", "163405.615000", "163407.105000", "163408.595000", "163410.085000", "163411.575000", "163413.065000", "163414.555000", "163416.045000", "163417.535000", "163419.025000", "163420.515000", "163422.005000", "163423.495000", "163424.985000", "163426.475000", "163427.965000", "163429.455000", "163430.945000", "163432.435000", "163433.925000", "163435.415000", "163436.905000", "163438.395000", "163439.885000", "163441.375000", "163442.865000", "163444.355000", "163445.845000", "163447.335000", "163448.825000", "163450.315000", "163451.805000"],
      "ContentTime": ["162346.608000", "162346.612000", "162346.618000", "162346.621000", "162346.624000", "162346.627000", "162346.630000", "162346.632000", "162346.635000", "162346.639000", "162346.642000", "162346.644000", "162346.647000", "162346.650000", "162346.653000", "162346.656000", "162346.659000", "162346.662000", "162346.665000", "162346.668000", "162346.671000", "162346.674000", "162346.677000", "162346.680000", "162346.682000", "162346.691000", "162346.694000", "162346.697000", "162346.700000", "162346.703000", "162346.706000", "162346.709000", "162346.712000", "162346.715000", "162346.718000", "162346.721000", "162346.723000", "162346.726000", "162406.577000", "162406.597000", "162406.600000", "162406.603000", "162406.606000", "162406.609000", "162406.612000", "162406.615000", "162406.617000", "162406.620000", "162406.623000", "162406.626000", "162406.629000", "162406.632000", "162406.635000", "162406.638000", "162406.641000", "162406.644000", "162406.647000", "162406.650000", "162426.578000", "162426.581000", "162426.585000", "162426.587000", "162426.590000", "162426.593000", "162426.596000", "162426.599000", "162426.602000", "162426.605000", "162426.608000", "162426.611000", "162426.614000", "162426.617000", "162426.620000", "162426.623000", "162426.626000", "162426.628000", "162426.632000", "162426.635000", "162446.577000", "162446.580000", "162446.583000", "162446.586000", "162446.589000", "162446.592000", "162446.595000", "162446.598000", "162446.601000", "162446.603000", "162446.606000", "162446.609000", "162446.612000", "162446.615000", "162446.618000", "162446.621000", "162446.624000", "162446.627000", "162446.630000", "162446.632000", "162526.577000", "162526.580000", "162526.583000", "162526.586000", "162526.589000", "162526.592000", "162526.595000", "162526.598000", "162526.601000", "162526.604000", "162526.607000", "162526.610000", "162526.613000", "162526.616000", "162526.619000", "162526.621000", "162526.624000", "162526.627000", "162526.630000", "162526.633000", "162526.636000", "162526.639000", "162526.642000", "162526.645000", "162526.648000", "162526.651000", "162526.654000", "162526.657000", "162526.660000", "162526.663000", "162606.577000", "162606.580000", "162606.583000", "162606.586000", "162606.589000", "162606.592000", "162606.595000", "162606.598000", "162606.601000", "162606.604000", "162606.607000", "162606.610000", "162606.613000", "162606.616000", "162606.619000", "162606.622000", "162606.633000", "162606.636000", "162606.639000", "162606.642000", "162606.644000", "162606.647000", "162606.650000", "162606.653000", "162606.656000", "162606.659000", "162606.662000", "162646.577000", "162646.585000", "162646.588000", "162646.591000", "162646.594000", "162646.597000", "162646.600000", "162646.603000", "162646.605000", "162646.608000", "162646.612000", "162646.615000", "162646.618000", "162646.621000", "162646.624000", "162646.627000", "162646.630000", "162646.632000", "162646.637000", "162646.640000", "162646.643000", "162646.646000", "162646.649000", "162646.652000", "162646.655000", "162646.657000", "162726.578000", "162726.581000", "162726.584000", "162726.587000", "162726.590000", "162726.593000", "162726.596000", "162726.599000", "162726.602000", "162726.605000", "162726.608000", "162726.620000", "162726.623000", "162726.626000", "162726.629000", "162726.632000", "162726.635000", "162726.638000", "162726.641000", "162726.644000", "162726.647000", "162726.650000", "162726.653000", "162726.656000", "162726.659000", "162726.662000", "162726.665000", "162806.577000", "162806.580000", "162806.583000", "162806.586000", "162806.589000", "162806.592000", "162806.595000", "162806.598000", "162806.601000", "162806.604000", "162806.607000", "162806.610000", "162806.613000", "162806.616000", "162806.619000", "162806.622000", "162806.624000", "162806.628000", "162806.631000", "162806.634000", "162806.636000", "162806.640000", "162806.643000", "162806.645000", "162806.648000", "162806.652000", "162806.654000", "162846.577000", "162846.580000", "162846.583000", "162846.586000", "162846.590000", "162846.612000", "162846.615000", "162846.618000", "162846.621000", "162846.623000", "162846.626000", "162846.629000", "162846.632000", "162846.635000", "162846.638000", "162846.641000", "162846.644000", "162846.647000", "162846.650000", "162846.653000", "162846.656000", "162846.659000", "162846.662000", "162846.665000", "162846.668000", "162846.671000", "162846.674000", "162926.577000", "162926.580000", "162926.583000", "162926.586000", "162926.589000", "162926.592000", "162926.595000", "162926.598000", "162926.601000", "162926.604000", "162926.607000", "162926.610000", "162926.613000", "162926.616000", "162926.619000", "162926.622000", "162926.625000", "162926.628000", "162926.630000", "162926.634000", "162926.637000", "162926.640000", "162926.643000", "162926.646000", "162926.649000", "162926.651000", "162926.654000", "163006.577000", "163006.580000", "163006.583000", "163006.586000", "163006.589000", "163006.592000", "163006.595000", "163006.598000", "163006.601000", "163006.604000", "163006.607000", "163006.610000", "163006.613000", "163006.616000", "163006.619000", "163006.622000", "163006.625000", "163006.628000", "163006.631000", "163006.634000", "163006.637000", "163006.640000", "163006.643000", "163006.646000", "163006.649000", "163006.651000", "163006.655000", "163046.577000", "163046.580000", "163046.583000", "163046.586000", "163046.589000", "163046.592000", "163046.601000", "163046.604000", "163046.607000", "163046.610000", "163046.613000", "163046.616000", "163046.619000", "163046.622000", "163046.625000", "163046.628000", "163046.631000", "163046.635000", "163046.639000", "163046.643000", "163046.647000", "163046.650000", "163046.653000", "163046.656000", "163046.659000", "163046.662000", "163126.577000", "163126.580000", "163126.583000", "163126.586000", "163126.589000", "163126.592000", "163126.595000", "163126.598000", "163126.601000", "163126.604000", "163126.607000", "163126.610000", "163126.613000", "163126.616000", "163126.619000", "163126.622000", "163126.625000", "163126.628000", "163126.631000", "163126.634000", "163126.637000", "163126.640000", "163126.643000", "163126.646000", "163126.649000", "163126.652000", "163126.655000", "163206.578000", "163206.581000", "163206.584000", "163206.587000", "163206.590000", "163206.593000", "163206.596000", "163206.599000", "163206.602000", "163206.605000", "163206.613000", "163206.616000", "163206.619000", "163206.622000", "163206.625000", "163206.633000", "163206.636000", "163206.639000", "163206.642000", "163206.645000", "163206.648000", "163206.651000", "163206.654000", "163206.657000", "163206.659000", "163206.662000", "163206.665000", "163246.577000", "163246.580000", "163246.583000", "163246.586000", "163246.589000", "163246.592000", "163246.595000", "163246.598000", "163246.601000", "163246.604000", "163246.607000", "163246.610000", "163246.613000", "163246.616000", "163246.619000", "163246.622000", "163246.625000", "163246.628000", "163246.631000", "163246.634000", "163246.637000", "163246.640000", "163246.643000", "163246.646000", "163246.649000", "163246.652000", "163246.654000", "163326.577000", "163326.580000", "163326.583000", "163326.586000", "163326.589000", "163326.592000", "163326.608000", "163326.611000", "163326.614000", "163326.617000", "163326.620000", "163326.623000", "163326.626000", "163326.629000", "163326.632000", "163326.639000", "163326.643000", "163326.645000", "163326.648000", "163326.651000", "163326.655000", "163326.658000", "163326.661000", "163326.664000", "163326.667000", "163326.670000", "163326.673000", "163406.577000", "163406.580000", "163406.583000", "163406.586000", "163406.589000", "163406.592000", "163406.595000", "163406.598000", "163406.601000", "163406.604000", "163406.607000", "163406.610000", "163406.613000", "163406.616000", "163406.619000", "163406.622000", "163406.625000", "163406.628000", "163406.631000", "163406.634000", "163406.637000", "163406.640000", "163406.643000", "163406.646000", "163406.649000", "163406.651000", "163406.654000", "163446.577000", "163446.580000", "163446.583000", "163446.586000", "163446.589000", "163446.592000", "163446.595000", "163446.598000", "163446.601000", "163446.604000", "163446.607000", "163446.610000", "163446.613000", "163446.616000", "163446.619000", "163446.622000", "163446.625000", "163446.627000", "163446.630000", "163446.633000", "163446.636000", "163446.639000", "163446.642000", "163446.645000", "163446.648000", "163446.651000", "163446.654000", "163454.045000", "163454.049000", "163454.052000", "163454.056000", "163454.059000"],
