{
  "AcquisitionMatrixPE": 104,
  "AcquisitionNumber": 1,
  "AcquisitionTime": "15:39:55.335000",
  "BandwidthPerPixelPhaseEncode": 17.17,
  "BaseResolution": 104,
  "BodyPartExamined": "BRAIN",
  "CoilString": "HC1-7;NC1_2",
  "ConsistencyInfo": "N4_VE11C_LATEST_20160120",
  "ConversionSoftware": "dcm2niix",
  "ConversionSoftwareVersion": "v1.0.20190902",
  "DerivedVendorReportedEchoSpacing": 0.000560011,
  "DeviceSerialNumber": "167006",
  "DwellTime": 2.1e-06,
  "EchoTime": 0.037,
  "EchoTrainLength": 104,
  "EffectiveEchoSpacing": 0.000560011,
  "FlipAngle": 52,
  "ImageComments": "Unaliased_MB4_PE3_LB",
  "ImageOrientationPatientDICOM": [0.999791, -0.0193367, 0.0066493, 0.0204189, 0.92678, -0.375049],
  "ImageType": [
    "ORIGINAL",
    "PRIMARY",
    "M",
    "MB",
    "ND",
    "MOSAIC"
],
  "ImagingFrequency": 123.259,
  "InPlanePhaseEncodingDirectionDICOM": "COL",
  "InstitutionAddress": "Chemin_Queen-Mary_4565_Montreal_District_CA_H3W_1W5",
  "InstitutionName": "IUGM",
  "InstitutionalDepartmentName": "Department",
  "MRAcquisitionType": "2D",
  "MagneticFieldStrength": 3,
  "Manufacturer": "Siemens",
  "ManufacturersModelName": "Prisma_fit",
  "Modality": "MR",
  "MultibandAccelerationFactor": 4,
  "PartialFourier": 1,
  "PatientPosition": "HFS",
  "PercentPhaseFOV": 100,
  "PhaseEncodingDirection": "j",
  "PhaseEncodingSteps": 104,
  "PhaseResolution": 1,
  "PixelBandwidth": 2290,
  "ProcedureStepDescription": "language_harrypotter",
  "ProtocolName": "func_task-harrypotter_run-1",
  "PulseSequenceDetails": "%CustomerSeq%_cmrr_mbep2d_bold",
  "ReceiveCoilActiveElements": "HC1-7;NC1,2",
  "ReceiveCoilName": "HeadNeck_64",
  "ReconMatrixPE": 104,
  "RepetitionTime": 1.49,
  "SAR": 0.0310138,
  "ScanOptions": "FS",
  "ScanningSequence": "EP",
  "SequenceName": "epfid2d1_104",
  "SequenceVariant": "SK_SS",
  "SeriesDescription": "func_task-harrypotter_run-1",
  "SeriesNumber": 9,
  "ShimSetting": [628, -7252, -8834, 591, 1, -236, -69, -9],
  "SliceThickness": 2,
  "SliceTiming": [0, 0.785, 0.0975, 0.8825, 0.1975, 0.98, 0.295, 1.0775, 0.3925, 1.175, 0.49, 1.275, 0.5875, 1.3725, 0.6875, 0, 0.785, 0.0975, 0.8825, 0.1975, 0.98, 0.295, 1.0775, 0.3925, 1.175, 0.49, 1.275, 0.5875, 1.3725, 0.6875, 0, 0.785, 0.0975, 0.8825, 0.1975, 0.98, 0.295, 1.0775, 0.3925, 1.175, 0.49, 1.275, 0.5875, 1.3725, 0.6875, 0, 0.785, 0.0975, 0.8825, 0.1975, 0.98, 0.295, 1.0775, 0.3925, 1.175, 0.49, 1.275, 0.5875, 1.3725, 0.6875],
  "SoftwareVersions": "syngo_MR_E11",
  "SpacingBetweenSlices": 2,
  "StationName": "MRC35049",
  "TaskName": "harrypotter",
  "TotalReadoutTime": 0.0576811,
  "TxRefAmp": 219.786,
  "WipMemBlock": "b8f9d208-84a0-4cc6-ac10-0a73acfe94ee||Sequence: R016 ve11c/master r/e634e98; Dec 19 2017 11:00:25 by eja",
  "dcmmeta_affine": [
    [-1.9995818138122559, 0.040837839245796204, -0.0021795202046632767, 105.08019256591797],
    [0.03867333009839058, 1.853559970855713, -0.7502131462097168, -63.70176696777344],
    [0.013298607431352139, 0.750098466873169, 1.8539620637893677, -69.67892456054688],
    [0.0, 0.0, 0.0, 1.0]
],
  "dcmmeta_reorient_transform": [
    [0.0, -1.0, 0.0, 103.0],
    [1.0, 0.0, 0.0, 0.0],
    [0.0, 0.0, 1.0, 0.0],
    [0.0, 0.0, 0.0, 1.0]
],
  "dcmmeta_shape": [104, 104, 60, 455],
  "dcmmeta_slice_dim": 2,
  "dcmmeta_version": 0.6,
  "global": {
    "const": {
      "AcquisitionMatrix": [104, 0, 0, 104],
      "AngioFlag": "N",
      "BitsAllocated": 16,
      "BitsStored": 16,
      "BodyPartExamined": "BRAIN",
      "Columns": 832,
      "EchoNumbers": 1,
      "EchoTime": 37.0,
      "EchoTrainLength": 104,
      "FlipAngle": 52.0,
      "HighBit": 15,
      "ImageOrientationPatient": [0.99979091820163, -0.0193366657061, 0.00664930379229, 0.02041892025899, 0.92677998320126, -0.3750492373448],
      "ImagePositionPatient": [-851.99925485545, -787.8336452097, 275.77637243178],
      "ImageType": [
        "ORIGINAL",
        "PRIMARY",
        "M",
        "MB",
        "ND",
        "MOSAIC"
],
      "ImagedNucleus": "1H",
      "ImagingFrequency": 123.258962,
      "InPlanePhaseEncodingDirection": "COL",
      "MRAcquisitionType": "2D",
      "MagneticFieldStrength": 3.0,
      "Manufacturer": "SIEMENS",
      "ManufacturerModelName": "Prisma_fit",
      "Modality": "MR",
      "NumberOfAverages": 1.0,
      "NumberOfPhaseEncodingSteps": 104,
      "PercentPhaseFieldOfView": 100.0,
      "PercentSampling": 100.0,
      "PerformedProcedureStepStartTime": "151905.512000",
      "PhotometricInterpretation": "MONOCHROME2",
      "PixelBandwidth": 2290.0,
      "PixelRepresentation": 0,
      "PixelSpacing": [2.0, 2.0],
      "ProtocolName": "func_task-harrypotter_run-1",
      "RepetitionTime": 1490.0,
      "Rows": 832,
      "SAR": 0.03101379973279,
      "SamplesPerPixel": 1,
      "ScanOptions": "FS",
      "ScanningSequence": "EP",
      "SequenceName": "epfid2d1_104",
      "SequenceVariant": [
        "SK",
        "SS"
],
      "SeriesDescription": "func_task-harrypotter_run-1",
      "SeriesNumber": 9,
      "SeriesTime": "154112.860000",
      "SliceLocation": -40.810599570634,
      "SliceThickness": 2.0,
      "SmallestImagePixelValue": 0,
      "SoftwareVersions": "syngo MR E11",
      "SpacingBetweenSlices": 1.9999999564556,
      "SpecificCharacterSet": "ISO_IR 100",
      "StudyID": "1",
      "StudyTime": "151905.401000",
      "TransmitCoilName": "Body",
      "VariableFlipAngleFlag": "N",
      "WindowCenterWidthExplanation": "Algo1",
      "dBdt": 0.0},
    "slices": {}
  },
  "time": {
    "samples": {
      "AcquisitionNumber": [1, 2, 3, 4, 5, 6, 7, 8, 9, 10, 11, 12, 13, 14, 15, 16, 17, 18, 19, 20, 21, 22, 23, 24, 25, 26, 27, 28, 29, 30, 31, 32, 33, 34, 35, 36, 37, 38, 39, 40, 41, 42, 43, 44, 45, 46, 47, 48, 49, 50, 51, 52, 53, 54, 55, 56, 57, 58, 59, 60, 61, 62, 63, 64, 65, 66, 67, 68, 69, 70, 71, 72, 73, 74, 75, 76, 77, 78, 79, 80, 81, 82, 83, 84, 85, 86, 87, 88, 89, 90, 91, 92, 93, 94, 95, 96, 97, 98, 99, 100, 101, 102, 103, 104, 105, 106, 107, 108, 109, 110, 111, 112, 113, 114, 115, 116, 117, 118, 119, 120, 121, 122, 123, 124, 125, 126, 127, 128, 129, 130, 131, 132, 133, 134, 135, 136, 137, 138, 139, 140, 141, 142, 143, 144, 145, 146, 147, 148, 149, 150, 151, 152, 153, 154, 155, 156, 157, 158, 159, 160, 161, 162, 163, 164, 165, 166, 167, 168, 169, 170, 171, 172, 173, 174, 175, 176, 177, 178, 179, 180, 181, 182, 183, 184, 185, 186, 187, 188, 189, 190, 191, 192, 193, 194, 195, 196, 197, 198, 199, 200, 201, 202, 203, 204, 205, 206, 207, 208, 209, 210, 211, 212, 213, 214, 215, 216, 217, 218, 219, 220, 221, 222, 223, 224, 225, 226, 227, 228, 229, 230, 231, 232, 233, 234, 235, 236, 237, 238, 239, 240, 241, 242, 243, 244, 245, 246, 247, 248, 249, 250, 251, 252, 253, 254, 255, 256, 257, 258, 259, 260, 261, 262, 263, 264, 265, 266, 267, 268, 269, 270, 271, 272, 273, 274, 275, 276, 277, 278, 279, 280, 281, 282, 283, 284, 285, 286, 287, 288, 289, 290, 291, 292, 293, 294, 295, 296, 297, 298, 299, 300, 301, 302, 303, 304, 305, 306, 307, 308, 309, 310, 311, 312, 313, 314, 315, 316, 317, 318, 319, 320, 321, 322, 323, 324, 325, 326, 327, 328, 329, 330, 331, 332, 333, 334, 335, 336, 337, 338, 339, 340, 341, 342, 343, 344, 345, 346, 347, 348, 349, 350, 351, 352, 353, 354, 355, 356, 357, 358, 359, 360, 361, 362, 363, 364, 365, 366, 367, 368, 369, 370, 371, 372, 373, 374, 375, 376, 377, 378, 379, 380, 381, 382, 383, 384, 385, 386, 387, 388, 389, 390, 391, 392, 393, 394, 395, 396, 397, 398, 399, 400, 401, 402, 403, 404, 405, 406, 407, 408, 409, 410, 411, 412, 413, 414, 415, 416, 417, 418, 419, 420, 421, 422, 423, 424, 425, 426, 427, 428, 429, 430, 431, 432, 433, 434, 435, 436, 437, 438, 439, 440, 441, 442, 443, 444, 445, 446, 447, 448, 449, 450, 451, 452, 453, 454, 455],
      "AcquisitionTime": ["153955.335000", "153956.825000", "153958.315000", "153959.805000", "154001.295000", "154002.785000", "154004.275000", "154005.765000", "154007.255000", "154008.745000", "154010.235000", "154011.725000", "154013.215000", "154014.705000", "154016.195000", "154017.685000", "154019.175000", "154020.665000", "154022.155000", "154023.645000", "154025.135000", "154026.625000", "154028.115000", "154029.605000", "154031.095000", "154032.585000", "154034.075000", "154035.565000", "154037.055000", "154038.545000", "154040.035000", "154041.525000", "154043.015000", "154044.505000", "154045.995000", "154047.485000", "154048.975000", "154050.465000", "154051.955000", "154053.445000", "154054.935000", "154056.425000", "154057.915000", "154059.405000", "154100.895000", "154102.385000", "154103.875000", "154105.365000", "154106.855000", "154108.345000", "154109.835000", "154111.325000", "154112.815000", "154114.305000", "154115.795000", "154117.285000", "154118.775000", "154120.265000", "154121.755000", "154123.245000", "154124.735000", "154126.225000", "154127.715000", "154129.205000", "154130.695000", "154132.185000", "154133.675000", "154135.165000", "154136.655000", "154138.145000", "154139.635000", "154141.125000", "154142.615000", "154144.105000", "154145.595000", "154147.085000", "154148.575000", "154150.065000", "154151.555000", "154153.045000", "154154.535000", "154156.025000", "154157.515000", "154159.005000", "154200.495000", "154201.985000", "154203.475000", "154204.965000", "154206.455000", "154207.945000", "154209.435000", "154210.925000", "154212.415000", "154213.905000", "154215.395000", "154216.885000", "154218.375000", "154219.865000", "154221.355000", "154222.845000", "154224.335000", "154225.825000", "154227.315000", "154228.805000", "154230.295000", "154231.785000", "154233.275000", "154234.765000", "154236.255000", "154237.745000", "154239.235000", "154240.725000", "154242.215000", "154243.705000", "154245.195000", "154246.685000", "154248.175000", "154249.665000", "154251.155000", "154252.645000", "154254.135000", "154255.625000", "154257.115000", "154258.605000", "154300.095000", "154301.585000", "154303.075000", "154304.565000", "154306.055000", "154307.545000", "154309.035000", "154310.525000", "154312.015000", "154313.505000", "154314.995000", "154316.485000", "154317.975000", "154319.465000", "154320.955000", "154322.445000", "154323.935000", "154325.425000", "154326.915000", "154328.405000", "154329.895000", "154331.385000", "154332.875000", "154334.365000", "154335.855000", "154337.345000", "154338.835000", "154340.325000", "154341.815000", "154343.305000", "154344.795000", "154346.285000", "154347.775000", "154349.265000", "154350.755000", "154352.245000", "154353.735000", "154355.225000", "154356.715000", "154358.205000", "154359.695000", "154401.185000", "154402.675000", "154404.165000", "154405.655000", "154407.145000", "154408.635000", "154410.125000", "154411.615000", "154413.105000", "154414.595000", "154416.085000", "154417.575000", "154419.065000", "154420.555000", "154422.045000", "154423.535000", "154425.025000", "154426.515000", "154428.005000", "154429.495000", "154430.985000", "154432.475000", "154433.965000", "154435.455000", "154436.945000", "154438.435000", "154439.925000", "154441.415000", "154442.905000", "154444.395000", "154445.885000", "154447.375000", "154448.865000", "154450.355000", "154451.845000", "154453.335000", "154454.825000", "154456.315000", "154457.805000", "154459.295000", "154500.785000", "154502.275000", "154503.765000", "154505.255000", "154506.745000", "154508.235000", "154509.725000", "154511.215000", "154512.705000", "154514.195000", "154515.685000", "154517.175000", "154518.665000", "154520.155000", "154521.645000", "154523.135000", "154524.625000", "154526.115000", "154527.605000", "154529.095000", "154530.585000", "154532.075000", "154533.565000", "154535.055000", "154536.545000", "154538.035000", "154539.525000", "154541.015000", "154542.505000", "154543.995000", "154545.485000", "154546.975000", "154548.465000", "154549.955000", "154551.445000", "154552.935000", "154554.425000", "154555.915000", "154557.405000", "154558.895000", "154600.385000", "154601.875000", "154603.365000", "154604.855000", "154606.345000", "154607.835000", "154609.325000", "154610.815000", "154612.305000", "154613.795000", "154615.285000", "154616.775000", "154618.265000", "154619.755000", "154621.245000", "154622.735000", "154624.225000", "154625.715000", "154627.205000", "154628.695000", "154630.185000", "154631.675000", "154633.165000", "154634.655000", "154636.145000", "154637.635000", "154639.125000", "154640.615000", "154642.105000", "154643.595000", "154645.085000", "154646.575000", "154648.065000", "154649.555000", "154651.045000", "154652.535000", "154654.025000", "154655.515000", "154657.005000", "154658.495000", "154659.985000", "154701.475000", "154702.965000", "154704.455000", "154705.945000", "154707.435000", "154708.925000", "154710.415000", "154711.905000", "154713.395000", "154714.885000", "154716.375000", "154717.865000", "154719.355000", "154720.845000", "154722.335000", "154723.825000", "154725.315000", "154726.805000", "154728.295000", "154729.785000", "154731.275000", "154732.765000", "154734.255000", "154735.745000", "154737.235000", "154738.725000", "154740.215000", "154741.705000", "154743.195000", "154744.685000", "154746.175000", "154747.665000", "154749.155000", "154750.645000", "154752.135000", "154753.625000", "154755.115000", "154756.605000", "154758.095000", "154759.585000", "154801.075000", "154802.565000", "154804.055000", "154805.545000", "154807.035000", "154808.525000", "154810.015000", "154811.505000", "154812.995000", "154814.485000", "154815.975000", "154817.465000", "154818.955000", "154820.445000", "154821.935000", "154823.425000", "154824.915000", "154826.405000", "154827.895000", "154829.385000", "154830.875000", "154832.365000", "154833.855000", "154835.345000", "154836.835000", "154838.325000", "154839.815000", "154841.305000", "154842.795000", "154844.285000", "154845.775000", "154847.265000", "154848.755000", "154850.245000", "154851.735000", "154853.225000", "154854.715000", "154856.205000", "154857.695000", "154859.185000", "154900.675000", "154902.165000", "154903.655000", "154905.145000", "154906.635000", "154908.125000", "154909.615000", "154911.105000", "154912.595000", "154914.085000", "154915.575000", "154917.065000", "154918.555000", "154920.045000", "154921.535000", "154923.025000", "154924.515000", "154926.005000", "154927.495000", "154928.985000", "154930.475000", "154931.965000", "154933.455000", "154934.945000", "154936.435000", "154937.925000", "154939.415000", "154940.905000", "154942.395000", "154943.885000", "154945.375000", "154946.865000", "154948.355000", "154949.845000", "154951.335000", "154952.825000", "154954.315000", "154955.805000", "154957.295000", "154958.785000", "155000.275000", "155001.765000", "155003.255000", "155004.745000", "155006.235000", "155007.725000", "155009.215000", "155010.705000", "155012.195000", "155013.685000", "155015.175000", "155016.665000", "155018.155000", "155019.645000", "155021.135000", "155022.625000", "155024.115000", "155025.605000", "155027.095000", "155028.585000", "155030.075000", "155031.565000", "155033.055000", "155034.545000", "155036.035000", "155037.525000", "155039.015000", "155040.505000", "155041.995000", "155043.485000", "155044.975000", "155046.465000", "155047.955000", "155049.445000", "155050.935000", "155052.425000", "155053.915000", "155055.405000", "155056.895000", "155058.385000", "155059.875000", "155101.365000", "155102.855000", "155104.345000", "155105.835000", "155107.325000", "155108.815000", "155110.305000", "155111.795000"],
      "ContentTime": ["154112.862000", "154112.866000", "154112.869000", "154112.872000", "154112.875000", "154112.878000", "154112.881000", "154112.884000", "154112.887000", "154112.890000", "154112.893000", "154112.896000", "154112.899000", "154112.901000", "154112.904000", "154112.912000", "154112.915000", "154112.918000", "154112.921000", "154112.924000", "154112.927000", "154112.930000", "154132.821000", "154132.824000", "154132.827000", "154132.830000", "154132.833000", "154132.836000", "154132.839000", "154132.841000", "154132.844000", "154132.847000", "154132.850000", "154132.853000", "154132.856000", "154132.863000", "154132.866000", "154132.869000", "154132.872000", "154132.875000", "154132.878000", "154132.881000", "154152.821000", "154152.824000", "154152.827000", "154152.830000", "154152.833000", "154152.836000", "154152.839000", "154152.842000", "154152.845000", "154152.848000", "154152.850000", "154152.853000", "154152.856000", "154152.859000", "154152.868000", "154152.871000", "154152.874000", "154152.877000", "154152.880000", "154152.883000", "154212.821000", "154212.824000", "154212.827000", "154212.830000", "154212.833000", "154212.836000", "154212.839000", "154212.842000", "154212.845000", "154212.847000", "154212.850000", "154212.853000", "154212.856000", "154212.859000", "154212.862000", "154212.865000", "154212.868000", "154212.871000", "154212.874000", "154212.877000", "154232.821000", "154232.824000", "154232.827000", "154232.830000", "154232.833000", "154232.836000", "154232.839000", "154232.841000", "154232.844000", "154232.847000", "154232.850000", "154232.853000", "154232.856000", "154232.859000", "154232.862000", "154232.865000", "154232.868000", "154232.871000", "154232.874000", "154232.877000", "154312.822000", "154312.825000", "154312.828000", "154312.831000", "154312.834000", "154312.837000", "154312.840000", "154312.843000", "154312.846000", "154312.849000", "154312.852000", "154312.854000", "154312.858000", "154312.867000", "154312.870000", "154312.873000", "154312.876000", "154312.879000", "154312.882000", "154312.885000", "154312.888000", "154312.891000", "154312.894000", "154312.897000", "154312.900000", "154312.903000", "154312.906000", "154312.909000", "154312.912000", "154312.915000", "154352.821000", "154352.824000", "154352.827000", "154352.830000", "154352.837000", "154352.840000", "154352.843000", "154352.846000", "154352.849000", "154352.852000", "154352.855000", "154352.857000", "154352.860000", "154352.863000", "154352.866000", "154352.869000", "154352.872000", "154352.875000", "154352.878000", "154352.881000", "154352.884000", "154352.887000", "154352.890000", "154352.893000", "154352.896000", "154352.899000", "154352.901000", "154432.821000", "154432.825000", "154432.827000", "154432.830000", "154432.833000", "154432.837000", "154432.839000", "154432.842000", "154432.845000", "154432.848000", "154432.851000", "154432.854000", "154432.857000", "154432.860000", "154432.879000", "154432.883000", "154432.886000", "154432.889000", "154432.892000", "154432.895000", "154432.898000", "154432.900000", "154432.903000", "154432.906000", "154432.909000", "154432.912000", "154512.822000", "154512.825000", "154512.828000", "154512.831000", "154512.834000", "154512.837000", "154512.840000", "154512.843000", "154512.846000", "154512.849000", "154512.852000", "154512.855000", "154512.858000", "154512.861000", "154512.864000", "154512.867000", "154512.870000", "154512.873000", "154512.876000", "154512.879000", "154512.881000", "154512.884000", "154512.887000", "154512.890000", "154512.893000", "154512.896000", "154512.899000", "154552.822000", "154552.825000", "154552.828000", "154552.831000", "154552.834000", "154552.837000", "154552.840000", "154552.843000", "154552.846000", "154552.849000", "154552.852000", "154552.854000", "154552.858000", "154552.860000", "154552.863000", "154552.866000", "154552.870000", "154552.872000", "154552.875000", "154552.878000", "154552.881000", "154552.884000", "154552.887000", "154552.890000", "154552.893000", "154552.896000", "154552.899000", "154632.821000", "154632.824000", "154632.827000", "154632.830000", "154632.833000", "154632.836000", "154632.839000", "154632.842000", "154632.845000", "154632.848000", "154632.851000", "154632.854000", "154632.857000", "154632.860000", "154632.869000", "154632.872000", "154632.875000", "154632.878000", "154632.881000", "154632.884000", "154632.887000", "154632.890000", "154632.893000", "154632.896000", "154632.899000", "154632.902000", "154632.905000", "154652.821000", "154652.824000", "154652.827000", "154652.830000", "154652.833000", "154652.836000", "154652.839000", "154652.842000", "154652.845000", "154652.848000", "154652.851000", "154652.854000", "154652.857000", "154732.822000", "154732.825000", "154732.828000", "154732.831000", "154732.834000", "154732.837000", "154732.840000", "154732.843000", "154732.846000", "154732.849000", "154732.852000", "154732.855000", "154732.857000", "154732.860000", "154732.863000", "154732.866000", "154732.869000", "154732.872000", "154732.875000", "154732.878000", "154732.881000", "154732.884000", "154732.887000", "154732.890000", "154732.893000", "154732.896000", "154732.899000", "154812.822000", "154812.825000", "154812.828000", "154812.831000", "154812.834000", "154812.838000", "154812.850000", "154812.853000", "154812.856000", "154812.859000", "154812.862000", "154812.875000", "154812.878000", "154812.881000", "154812.884000", "154812.887000", "154812.890000", "154812.893000", "154812.896000", "154812.899000", "154812.902000", "154812.905000", "154812.908000", "154812.911000", "154812.914000", "154812.917000", "154812.920000", "154852.821000", "154852.824000", "154852.827000", "154852.830000", "154852.833000", "154852.836000", "154852.839000", "154852.842000", "154852.845000", "154852.848000", "154852.851000", "154852.854000", "154852.857000", "154852.860000", "154852.863000", "154852.866000", "154852.869000", "154852.872000", "154852.875000", "154852.878000", "154852.881000", "154852.884000", "154852.887000", "154852.890000", "154852.893000", "154852.896000", "154852.899000", "154932.822000", "154932.837000", "154932.840000", "154932.843000", "154932.846000", "154932.849000", "154932.852000", "154932.855000", "154932.858000", "154932.861000", "154932.864000", "154932.867000", "154932.870000", "154932.873000", "154932.875000", "154932.878000", "154932.882000", "154932.884000", "154932.887000", "154932.890000", "154932.893000", "154932.896000", "154932.899000", "154932.902000", "154932.905000", "154932.908000", "154932.911000", "155012.822000", "155012.825000", "155012.828000", "155012.831000", "155012.834000", "155012.837000", "155012.840000", "155012.843000", "155012.846000", "155012.849000", "155012.852000", "155012.855000", "155012.858000", "155012.860000", "155012.863000", "155012.867000", "155012.870000", "155012.873000", "155012.875000", "155012.878000", "155012.881000", "155012.884000", "155012.887000", "155012.890000", "155012.893000", "155012.896000", "155012.899000", "155052.821000", "155052.824000", "155052.827000", "155052.830000", "155052.837000", "155052.840000", "155052.843000", "155052.846000", "155052.849000", "155052.852000", "155052.855000", "155052.858000", "155052.861000", "155052.864000", "155052.867000", "155052.870000", "155052.873000", "155052.875000", "155052.879000", "155052.881000", "155052.884000", "155052.887000", "155052.890000", "155052.893000", "155052.896000", "155052.899000", "155113.738000", "155113.741000", "155113.744000", "155113.747000", "155113.750000", "155113.753000", "155113.756000", "155113.759000", "155113.762000", "155113.765000", "155113.768000", "155113.771000", "155113.775000", "155113.778000", "155113.781000"],
