{
  "AcquisitionMatrixPE": 104,
  "AcquisitionNumber": 1,
  "AcquisitionTime": "16:11:24.740000",
  "BandwidthPerPixelPhaseEncode": 17.17,
  "BaseResolution": 104,
  "BodyPartExamined": "BRAIN",
  "CoilString": "HC1-7;NC1_2",
  "ConsistencyInfo": "N4_VE11C_LATEST_20160120",
  "ConversionSoftware": "dcm2niix",
  "ConversionSoftwareVersion": "v1.0.20190902",
  "DerivedVendorReportedEchoSpacing": 0.000560011,
  "DeviceSerialNumber": "167006",
  "DwellTime": 2.1e-06,
  "EchoTime": 0.037,
  "EchoTrainLength": 104,
  "EffectiveEchoSpacing": 0.000560011,
  "FlipAngle": 52,
  "ImageComments": "Unaliased_MB4_PE3_LB",
  "ImageOrientationPatientDICOM": [0.999791, -0.0193367, 0.0066493, 0.0204189, 0.92678, -0.375049],
  "ImageType": [
    "ORIGINAL",
    "PRIMARY",
    "M",
    "MB",
    "ND",
    "MOSAIC"
],
  "ImagingFrequency": 123.259,
  "InPlanePhaseEncodingDirectionDICOM": "COL",
  "InstitutionAddress": "Chemin_Queen-Mary_4565_Montreal_District_CA_H3W_1W5",
  "InstitutionName": "IUGM",
  "InstitutionalDepartmentName": "Department",
  "MRAcquisitionType": "2D",
  "MagneticFieldStrength": 3,
  "Manufacturer": "Siemens",
  "ManufacturersModelName": "Prisma_fit",
  "Modality": "MR",
  "MultibandAccelerationFactor": 4,
  "PartialFourier": 1,
  "PatientPosition": "HFS",
  "PercentPhaseFOV": 100,
  "PhaseEncodingDirection": "j",
  "PhaseEncodingSteps": 104,
  "PhaseResolution": 1,
  "PixelBandwidth": 2290,
  "ProcedureStepDescription": "language_harrypotter",
  "ProtocolName": "func_task-harrypotter_run-3",
  "PulseSequenceDetails": "%CustomerSeq%_cmrr_mbep2d_bold",
  "ReceiveCoilActiveElements": "HC1-7;NC1,2",
  "ReceiveCoilName": "HeadNeck_64",
  "ReconMatrixPE": 104,
  "RepetitionTime": 1.49,
  "SAR": 0.0309843,
  "ScanOptions": "FS",
  "ScanningSequence": "EP",
  "SequenceName": "epfid2d1_104",
  "SequenceVariant": "SK_SS",
  "SeriesDescription": "func_task-harrypotter_run-3",
  "SeriesNumber": 15,
  "ShimSetting": [628, -7252, -8834, 591, 1, -236, -69, -9],
  "SliceThickness": 2,
  "SliceTiming": [0, 0.785, 0.1, 0.8825, 0.1975, 0.98, 0.295, 1.08, 0.3925, 1.1775, 0.49, 1.275, 0.59, 1.3725, 0.6875, 0, 0.785, 0.1, 0.8825, 0.1975, 0.98, 0.295, 1.08, 0.3925, 1.1775, 0.49, 1.275, 0.59, 1.3725, 0.6875, 0, 0.785, 0.1, 0.8825, 0.1975, 0.98, 0.295, 1.08, 0.3925, 1.1775, 0.49, 1.275, 0.59, 1.3725, 0.6875, 0, 0.785, 0.1, 0.8825, 0.1975, 0.98, 0.295, 1.08, 0.3925, 1.1775, 0.49, 1.275, 0.59, 1.3725, 0.6875],
  "SoftwareVersions": "syngo_MR_E11",
  "SpacingBetweenSlices": 2,
  "StationName": "MRC35049",
  "TaskName": "harrypotter",
  "TotalReadoutTime": 0.0576811,
  "TxRefAmp": 219.786,
  "WipMemBlock": "e758878c-810f-4f96-b803-0768d86ab51c||Sequence: R016 ve11c/master r/e634e98; Dec 19 2017 11:00:25 by eja",
  "dcmmeta_affine": [
    [-1.9995818138122559, 0.040837839245796204, -0.0021795202046632767, 105.08019256591797],
    [0.03867333009839058, 1.853559970855713, -0.7502131462097168, -63.70176696777344],
    [0.013298607431352139, 0.750098466873169, 1.8539620637893677, -69.67892456054688],
    [0.0, 0.0, 0.0, 1.0]
],
  "dcmmeta_reorient_transform": [
    [0.0, -1.0, 0.0, 103.0],
    [1.0, 0.0, 0.0, 0.0],
    [0.0, 0.0, 1.0, 0.0],
    [0.0, 0.0, 0.0, 1.0]
],
  "dcmmeta_shape": [104, 104, 60, 373],
  "dcmmeta_slice_dim": 2,
  "dcmmeta_version": 0.6,
  "global": {
    "const": {
      "AcquisitionMatrix": [104, 0, 0, 104],
      "AngioFlag": "N",
      "BitsAllocated": 16,
      "BitsStored": 16,
      "BodyPartExamined": "BRAIN",
      "Columns": 832,
      "EchoNumbers": 1,
      "EchoTime": 37.0,
      "EchoTrainLength": 104,
      "FlipAngle": 52.0,
      "HighBit": 15,
      "ImageOrientationPatient": [0.99979091820163, -0.0193366657061, 0.00664930379229, 0.02041892025899, 0.92677998320126, -0.3750492373448],
      "ImagePositionPatient": [-851.99925485545, -787.8336452097, 275.77637243178],
      "ImageType": [
        "ORIGINAL",
        "PRIMARY",
        "M",
        "MB",
        "ND",
        "MOSAIC"
],
      "ImagedNucleus": "1H",
      "ImagingFrequency": 123.258968,
      "InPlanePhaseEncodingDirection": "COL",
      "MRAcquisitionType": "2D",
      "MagneticFieldStrength": 3.0,
      "Manufacturer": "SIEMENS",
      "ManufacturerModelName": "Prisma_fit",
      "Modality": "MR",
      "NumberOfAverages": 1.0,
      "NumberOfPhaseEncodingSteps": 104,
      "PercentPhaseFieldOfView": 100.0,
      "PercentSampling": 100.0,
      "PerformedProcedureStepStartTime": "151905.512000",
      "PhotometricInterpretation": "MONOCHROME2",
      "PixelBandwidth": 2290.0,
      "PixelRepresentation": 0,
      "PixelSpacing": [2.0, 2.0],
      "ProtocolName": "func_task-harrypotter_run-3",
      "RepetitionTime": 1490.0,
      "Rows": 832,
      "SAR": 0.03098431659726,
      "SamplesPerPixel": 1,
      "ScanOptions": "FS",
      "ScanningSequence": "EP",
      "SequenceName": "epfid2d1_104",
      "SequenceVariant": [
        "SK",
        "SS"
],
      "SeriesDescription": "func_task-harrypotter_run-3",
      "SeriesNumber": 15,
      "SeriesTime": "161252.855000",
      "SliceLocation": -40.810599570634,
      "SliceThickness": 2.0,
      "SmallestImagePixelValue": 0,
      "SoftwareVersions": "syngo MR E11",
      "SpacingBetweenSlices": 1.9999999564556,
      "SpecificCharacterSet": "ISO_IR 100",
      "StudyID": "1",
      "StudyTime": "151905.401000",
      "TransmitCoilName": "Body",
      "VariableFlipAngleFlag": "N",
      "WindowCenterWidthExplanation": "Algo1",
      "dBdt": 0.0},
    "slices": {}
  },
  "time": {
    "samples": {
      "AcquisitionNumber": [1, 2, 3, 4, 5, 6, 7, 8, 9, 10, 11, 12, 13, 14, 15, 16, 17, 18, 19, 20, 21, 22, 23, 24, 25, 26, 27, 28, 29, 30, 31, 32, 33, 34, 35, 36, 37, 38, 39, 40, 41, 42, 43, 44, 45, 46, 47, 48, 49, 50, 51, 52, 53, 54, 55, 56, 57, 58, 59, 60, 61, 62, 63, 64, 65, 66, 67, 68, 69, 70, 71, 72, 73, 74, 75, 76, 77, 78, 79, 80, 81, 82, 83, 84, 85, 86, 87, 88, 89, 90, 91, 92, 93, 94, 95, 96, 97, 98, 99, 100, 101, 102, 103, 104, 105, 106, 107, 108, 109, 110, 111, 112, 113, 114, 115, 116, 117, 118, 119, 120, 121, 122, 123, 124, 125, 126, 127, 128, 129, 130, 131, 132, 133, 134, 135, 136, 137, 138, 139, 140, 141, 142, 143, 144, 145, 146, 147, 148, 149, 150, 151, 152, 153, 154, 155, 156, 157, 158, 159, 160, 161, 162, 163, 164, 165, 166, 167, 168, 169, 170, 171, 172, 173, 174, 175, 176, 177, 178, 179, 180, 181, 182, 183, 184, 185, 186, 187, 188, 189, 190, 191, 192, 193, 194, 195, 196, 197, 198, 199, 200, 201, 202, 203, 204, 205, 206, 207, 208, 209, 210, 211, 212, 213, 214, 215, 216, 217, 218, 219, 220, 221, 222, 223, 224, 225, 226, 227, 228, 229, 230, 231, 232, 233, 234, 235, 236, 237, 238, 239, 240, 241, 242, 243, 244, 245, 246, 247, 248, 249, 250, 251, 252, 253, 254, 255, 256, 257, 258, 259, 260, 261, 262, 263, 264, 265, 266, 267, 268, 269, 270, 271, 272, 273, 274, 275, 276, 277, 278, 279, 280, 281, 282, 283, 284, 285, 286, 287, 288, 289, 290, 291, 292, 293, 294, 295, 296, 297, 298, 299, 300, 301, 302, 303, 304, 305, 306, 307, 308, 309, 310, 311, 312, 313, 314, 315, 316, 317, 318, 319, 320, 321, 322, 323, 324, 325, 326, 327, 328, 329, 330, 331, 332, 333, 334, 335, 336, 337, 338, 339, 340, 341, 342, 343, 344, 345, 346, 347, 348, 349, 350, 351, 352, 353, 354, 355, 356, 357, 358, 359, 360, 361, 362, 363, 364, 365, 366, 367, 368, 369, 370, 371, 372, 373],
      "AcquisitionTime": ["161124.740000", "161126.230000", "161127.720000", "161129.210000", "161130.700000", "161132.190000", "161133.680000", "161135.170000", "161136.660000", "161138.150000", "161139.640000", "161141.130000", "161142.620000", "161144.110000", "161145.600000", "161147.090000", "161148.580000", "161150.070000", "161151.560000", "161153.050000", "161154.540000", "161156.030000", "161157.520000", "161159.010000", "161200.500000", "161201.990000", "161203.480000", "161204.970000", "161206.460000", "161207.950000", "161209.440000", "161210.930000", "161212.420000", "161213.910000", "161215.400000", "161216.890000", "161218.380000", "161219.870000", "161221.360000", "161222.850000", "161224.340000", "161225.830000", "161227.320000", "161228.810000", "161230.300000", "161231.790000", "161233.280000", "161234.770000", "161236.260000", "161237.750000", "161239.240000", "161240.730000", "161242.220000", "161243.710000", "161245.200000", "161246.690000", "161248.180000", "161249.670000", "161251.160000", "161252.650000", "161254.140000", "161255.630000", "161257.120000", "161258.610000", "161300.100000", "161301.590000", "161303.080000", "161304.570000", "161306.060000", "161307.550000", "161309.040000", "161310.530000", "161312.020000", "161313.510000", "161315.000000", "161316.490000", "161317.980000", "161319.470000", "161320.960000", "161322.450000", "161323.940000", "161325.430000", "161326.920000", "161328.410000", "161329.900000", "161331.390000", "161332.880000", "161334.370000", "161335.860000", "161337.350000", "161338.840000", "161340.330000", "161341.820000", "161343.310000", "161344.800000", "161346.290000", "161347.780000", "161349.270000", "161350.760000", "161352.250000", "161353.740000", "161355.230000", "161356.720000", "161358.210000", "161359.700000", "161401.190000", "161402.680000", "161404.170000", "161405.660000", "161407.150000", "161408.640000", "161410.130000", "161411.620000", "161413.110000", "161414.600000", "161416.090000", "161417.580000", "161419.070000", "161420.560000", "161422.050000", "161423.540000", "161425.030000", "161426.520000", "161428.010000", "161429.500000", "161430.990000", "161432.480000", "161433.970000", "161435.460000", "161436.950000", "161438.440000", "161439.930000", "161441.420000", "161442.910000", "161444.400000", "161445.890000", "161447.380000", "161448.870000", "161450.360000", "161451.850000", "161453.340000", "161454.830000", "161456.320000", "161457.810000", "161459.300000", "161500.790000", "161502.280000", "161503.770000", "161505.260000", "161506.750000", "161508.240000", "161509.730000", "161511.220000", "161512.710000", "161514.200000", "161515.690000", "161517.180000", "161518.670000", "161520.160000", "161521.650000", "161523.140000", "161524.630000", "161526.120000", "161527.610000", "161529.100000", "161530.590000", "161532.080000", "161533.570000", "161535.060000", "161536.550000", "161538.040000", "161539.530000", "161541.020000", "161542.510000", "161544.000000", "161545.490000", "161546.980000", "161548.470000", "161549.960000", "161551.450000", "161552.940000", "161554.430000", "161555.920000", "161557.410000", "161558.900000", "161600.390000", "161601.880000", "161603.370000", "161604.860000", "161606.350000", "161607.840000", "161609.330000", "161610.820000", "161612.310000", "161613.800000", "161615.290000", "161616.780000", "161618.270000", "161619.760000", "161621.250000", "161622.740000", "161624.230000", "161625.720000", "161627.210000", "161628.700000", "161630.190000", "161631.680000", "161633.170000", "161634.660000", "161636.150000", "161637.640000", "161639.130000", "161640.620000", "161642.110000", "161643.600000", "161645.090000", "161646.580000", "161648.070000", "161649.560000", "161651.050000", "161652.540000", "161654.030000", "161655.520000", "161657.010000", "161658.500000", "161659.990000", "161701.480000", "161702.970000", "161704.460000", "161705.950000", "161707.440000", "161708.930000", "161710.420000", "161711.910000", "161713.400000", "161714.890000", "161716.380000", "161717.870000", "161719.360000", "161720.850000", "161722.340000", "161723.830000", "161725.320000", "161726.810000", "161728.300000", "161729.790000", "161731.280000", "161732.770000", "161734.260000", "161735.750000", "161737.240000", "161738.730000", "161740.220000", "161741.710000", "161743.200000", "161744.690000", "161746.180000", "161747.670000", "161749.160000", "161750.650000", "161752.140000", "161753.630000", "161755.120000", "161756.610000", "161758.100000", "161759.590000", "161801.080000", "161802.570000", "161804.060000", "161805.550000", "161807.040000", "161808.530000", "161810.020000", "161811.510000", "161813.000000", "161814.490000", "161815.980000", "161817.470000", "161818.960000", "161820.450000", "161821.940000", "161823.430000", "161824.920000", "161826.410000", "161827.900000", "161829.390000", "161830.880000", "161832.370000", "161833.860000", "161835.350000", "161836.840000", "161838.330000", "161839.820000", "161841.310000", "161842.800000", "161844.290000", "161845.780000", "161847.270000", "161848.760000", "161850.250000", "161851.740000", "161853.230000", "161854.720000", "161856.210000", "161857.700000", "161859.190000", "161900.680000", "161902.170000", "161903.660000", "161905.150000", "161906.640000", "161908.130000", "161909.620000", "161911.110000", "161912.600000", "161914.090000", "161915.580000", "161917.070000", "161918.560000", "161920.050000", "161921.540000", "161923.030000", "161924.520000", "161926.010000", "161927.500000", "161928.990000", "161930.480000", "161931.970000", "161933.460000", "161934.950000", "161936.440000", "161937.930000", "161939.420000", "161940.910000", "161942.400000", "161943.890000", "161945.380000", "161946.870000", "161948.360000", "161949.850000", "161951.340000", "161952.830000", "161954.320000", "161955.810000", "161957.300000", "161958.790000", "162000.280000", "162001.770000", "162003.260000", "162004.750000", "162006.240000", "162007.730000", "162009.220000", "162010.710000", "162012.200000", "162013.690000", "162015.180000", "162016.670000", "162018.160000", "162019.650000", "162021.140000", "162022.630000", "162024.120000", "162025.610000", "162027.100000", "162028.590000", "162030.080000", "162031.570000", "162033.060000", "162034.550000", "162036.040000", "162037.530000", "162039.020000"],
      "ContentTime": ["161252.858000", "161252.863000", "161252.872000", "161252.875000", "161252.878000", "161252.881000", "161252.884000", "161252.886000", "161252.890000", "161252.892000", "161252.895000", "161252.898000", "161252.903000", "161252.906000", "161252.909000", "161252.911000", "161252.915000", "161252.918000", "161252.920000", "161252.923000", "161252.927000", "161252.934000", "161252.937000", "161252.940000", "161252.943000", "161252.946000", "161252.949000", "161252.952000", "161252.955000", "161252.958000", "161252.961000", "161252.964000", "161312.822000", "161312.825000", "161312.828000", "161312.831000", "161312.834000", "161312.837000", "161312.840000", "161312.843000", "161312.846000", "161312.848000", "161312.851000", "161312.861000", "161312.864000", "161312.867000", "161312.870000", "161312.873000", "161312.876000", "161312.879000", "161312.882000", "161312.885000", "161312.888000", "161332.822000", "161332.825000", "161332.828000", "161332.831000", "161332.834000", "161332.837000", "161332.840000", "161332.843000", "161332.846000", "161332.849000", "161332.852000", "161332.855000", "161332.858000", "161332.871000", "161332.875000", "161332.877000", "161332.880000", "161332.883000", "161332.886000", "161332.889000", "161352.822000", "161352.825000", "161352.828000", "161352.831000", "161352.834000", "161352.837000", "161352.840000", "161352.843000", "161352.846000", "161352.848000", "161352.851000", "161352.854000", "161352.864000", "161352.866000", "161352.869000", "161352.880000", "161352.883000", "161352.886000", "161352.900000", "161352.903000", "161432.821000", "161432.830000", "161432.836000", "161432.839000", "161432.842000", "161432.845000", "161432.849000", "161432.852000", "161432.854000", "161432.857000", "161432.861000", "161432.864000", "161432.867000", "161432.870000", "161432.872000", "161432.875000", "161432.878000", "161432.881000", "161432.884000", "161432.887000", "161432.890000", "161432.893000", "161432.896000", "161432.899000", "161432.902000", "161432.905000", "161432.912000", "161432.915000", "161432.918000", "161432.921000", "161432.924000", "161432.927000", "161512.822000", "161512.825000", "161512.828000", "161512.831000", "161512.834000", "161512.837000", "161512.840000", "161512.843000", "161512.846000", "161512.849000", "161512.852000", "161512.855000", "161512.858000", "161512.861000", "161512.864000", "161512.867000", "161512.870000", "161512.873000", "161512.876000", "161512.879000", "161512.882000", "161512.885000", "161512.888000", "161512.891000", "161512.894000", "161512.897000", "161512.899000", "161552.822000", "161552.825000", "161552.828000", "161552.831000", "161552.834000", "161552.844000", "161552.847000", "161552.850000", "161552.853000", "161552.856000", "161552.859000", "161552.862000", "161552.865000", "161552.868000", "161552.871000", "161552.874000", "161552.877000", "161552.888000", "161552.891000", "161552.894000", "161552.897000", "161552.900000", "161552.903000", "161552.906000", "161552.909000", "161552.911000", "161552.914000", "161632.821000", "161632.824000", "161632.827000", "161632.830000", "161632.833000", "161632.836000", "161632.839000", "161632.842000", "161632.850000", "161632.853000", "161632.856000", "161632.859000", "161632.862000", "161632.865000", "161632.868000", "161632.871000", "161632.874000", "161632.877000", "161632.880000", "161632.883000", "161632.886000", "161632.889000", "161632.892000", "161632.895000", "161632.898000", "161632.900000", "161632.904000", "161652.821000", "161652.824000", "161652.827000", "161652.830000", "161652.833000", "161652.836000", "161652.839000", "161652.842000", "161652.845000", "161652.848000", "161652.851000", "161652.854000", "161652.857000", "161732.822000", "161732.825000", "161732.828000", "161732.831000", "161732.834000", "161732.837000", "161732.840000", "161732.843000", "161732.846000", "161732.849000", "161732.852000", "161732.855000", "161732.858000", "161732.861000", "161732.864000", "161732.867000", "161732.870000", "161732.873000", "161732.883000", "161732.886000", "161732.889000", "161732.892000", "161732.895000", "161732.898000", "161732.901000", "161732.904000", "161732.907000", "161812.822000", "161812.825000", "161812.828000", "161812.831000", "161812.834000", "161812.837000", "161812.840000", "161812.843000", "161812.846000", "161812.849000", "161812.852000", "161812.855000", "161812.858000", "161812.861000", "161812.864000", "161812.867000", "161812.870000", "161812.873000", "161812.876000", "161812.878000", "161812.881000", "161812.885000", "161812.887000", "161812.890000", "161812.893000", "161812.896000", "161812.899000", "161852.821000", "161852.824000", "161852.827000", "161852.830000", "161852.833000", "161852.836000", "161852.839000", "161852.842000", "161852.845000", "161852.848000", "161852.851000", "161852.854000", "161852.857000", "161852.860000", "161852.863000", "161852.866000", "161852.869000", "161852.872000", "161852.875000", "161852.878000", "161852.881000", "161852.884000", "161852.887000", "161852.890000", "161852.893000", "161852.896000", "161852.899000", "161932.821000", "161932.824000", "161932.827000", "161932.830000", "161932.842000", "161932.845000", "161932.848000", "161932.851000", "161932.854000", "161932.857000", "161932.860000", "161932.863000", "161932.866000", "161932.868000", "161932.871000", "161932.874000", "161932.877000", "161932.880000", "161932.883000", "161932.886000", "161932.889000", "161932.892000", "161932.895000", "161932.898000", "161932.901000", "161932.904000", "161932.907000", "162012.822000", "162012.825000", "162012.828000", "162012.902000", "162012.905000", "162012.908000", "162012.924000", "162012.927000", "162012.930000", "162012.933000", "162012.936000", "162012.939000", "162012.942000", "162012.945000", "162012.948000", "162012.951000", "162012.954000", "162012.956000", "162012.960000", "162012.962000", "162012.965000", "162012.968000", "162012.971000", "162012.974000", "162012.977000", "162012.980000", "162012.983000", "162040.936000", "162040.939000", "162040.942000", "162040.945000", "162040.948000", "162040.951000", "162040.954000", "162040.957000", "162040.960000", "162040.963000", "162040.966000", "162040.969000", "162040.972000", "162040.975000", "162040.978000", "162040.981000", "162040.984000", "162040.987000", "162040.990000"],
      "InstanceCreationTime": ["161252.858000", "161252.863000", "161252.872000", "161252.875000", "161252.878000", "161252.881000", "161252.884000", "161252.886000", "161252.890000", "161252.892000", "161252.895000", "161252.898000", "161252.903000", "161252.906000", "161252.909000", "161252.911000", "161252.915000", "161252.918000", "161252.920000", "161252.923000", "161252.927000", "161252.934000", "161252.937000", "161252.940000", "161252.943000", "161252.946000", "161252.949000", "161252.952000", "161252.955000", "161252.958000", "161252.961000", "161252.964000", "161312.822000", "161312.825000", "161312.828000", "161312.831000", "161312.834000", "161312.837000", "161312.840000", "161312.843000", "161312.846000", "161312.848000", "161312.851000", "161312.861000", "161312.864000", "161312.867000", "161312.870000", "161312.873000", "161312.876000", "161312.879000", "161312.882000", "161312.885000", "161312.888000", "161332.822000", "161332.825000", "161332.828000", "161332.831000", "161332.834000", "161332.837000", "161332.840000", "161332.843000", "161332.846000", "161332.849000", "161332.852000", "161332.855000", "161332.858000", "161332.871000", "161332.875000", "161332.877000", "161332.880000", "161332.883000", "161332.886000", "161332.889000", "161352.822000", "161352.825000", "161352.828000", "161352.831000", "161352.834000", "161352.837000", "161352.840000", "161352.843000", "161352.846000", "161352.848000", "161352.851000", "161352.854000", "161352.864000", "161352.866000", "161352.869000", "161352.880000", "161352.883000", "161352.886000", "161352.900000", "161352.903000", "161432.821000", "161432.830000", "161432.836000", "161432.839000", "161432.842000", "161432.845000", "161432.849000", "161432.852000", "161432.854000", "161432.857000", "161432.861000", "161432.864000", "161432.867000", "161432.870000", "161432.872000", "161432.875000", "161432.878000", "161432.881000", "161432.884000", "161432.887000", "161432.890000", "161432.893000", "161432.896000", "161432.899000", "161432.902000", "161432.905000", "161432.912000", "161432.915000", "161432.918000", "161432.921000", "161432.924000", "161432.927000", "161512.822000", "161512.825000", "161512.828000", "161512.831000", "161512.834000", "161512.837000", "161512.840000", "161512.843000", "161512.846000", "161512.849000", "161512.852000", "161512.855000", "161512.858000", "161512.861000", "161512.864000", "161512.867000", "161512.870000", "161512.873000", "161512.876000", "161512.879000", "161512.882000", "161512.885000", "161512.888000", "161512.891000", "161512.894000", "161512.897000", "161512.899000", "161552.822000", "161552.825000", "161552.828000", "161552.831000", "161552.834000", "161552.844000", "161552.847000", "161552.850000", "161552.853000", "161552.856000", "161552.859000", "161552.862000", "161552.865000", "161552.868000", "161552.871000", "161552.874000", "161552.877000", "161552.888000", "161552.891000", "161552.894000", "161552.897000", "161552.900000", "161552.903000", "161552.906000", "161552.909000", "161552.911000", "161552.914000", "161632.821000", "161632.824000", "161632.827000", "161632.830000", "161632.833000", "161632.836000", "161632.839000", "161632.842000", "161632.850000", "161632.853000", "161632.856000", "161632.859000", "161632.862000", "161632.865000", "161632.868000", "161632.871000", "161632.874000", "161632.877000", "161632.880000", "161632.883000", "161632.886000", "161632.889000", "161632.892000", "161632.895000", "161632.898000", "161632.900000", "161632.904000", "161652.821000", "161652.824000", "161652.827000", "161652.830000", "161652.833000", "161652.836000", "161652.839000", "161652.842000", "161652.845000", "161652.848000", "161652.851000", "161652.854000", "161652.857000", "161732.822000", "161732.825000", "161732.828000", "161732.831000", "161732.834000", "161732.837000", "161732.840000", "161732.843000", "161732.846000", "161732.849000", "161732.852000", "161732.855000", "161732.858000", "161732.861000", "161732.864000", "161732.867000", "161732.870000", "161732.873000", "161732.883000", "161732.886000", "161732.889000", "161732.892000", "161732.895000", "161732.898000", "161732.901000", "161732.904000", "161732.907000", "161812.822000", "161812.825000", "161812.828000", "161812.831000", "161812.834000", "161812.837000", "161812.840000", "161812.843000", "161812.846000", "161812.849000", "161812.852000", "161812.855000", "161812.858000", "161812.861000", "161812.864000", "161812.867000", "161812.870000", "161812.873000", "161812.876000", "161812.878000", "161812.881000", "161812.885000", "161812.887000", "161812.890000", "161812.893000", "161812.896000", "161812.899000", "161852.821000", "161852.824000", "161852.827000", "161852.830000", "161852.833000", "161852.836000", "161852.839000", "161852.842000", "161852.845000", "161852.848000", "161852.851000", "161852.854000", "161852.857000", "161852.860000", "161852.863000", "161852.866000", "161852.869000", "161852.872000", "161852.875000", "161852.878000", "161852.881000", "161852.884000", "161852.887000", "161852.890000", "161852.893000", "161852.896000", "161852.899000", "161932.821000", "161932.824000", "161932.827000", "161932.830000", "161932.842000", "161932.845000", "161932.848000", "161932.851000", "161932.854000", "161932.857000", "161932.860000", "161932.863000", "161932.866000", "161932.868000", "161932.871000", "161932.874000", "161932.877000", "161932.880000", "161932.883000", "161932.886000", "161932.889000", "161932.892000", "161932.895000", "161932.898000", "161932.901000", "161932.904000", "161932.907000", "162012.822000", "162012.825000", "162012.828000", "162012.902000", "162012.905000", "162012.908000", "162012.924000", "162012.927000", "162012.930000", "162012.933000", "162012.936000", "162012.939000", "162012.942000", "162012.945000", "162012.948000", "162012.951000", "162012.954000", "162012.956000", "162012.960000", "162012.962000", "162012.965000", "162012.968000", "162012.971000", "162012.974000", "162012.977000", "162012.980000", "162012.983000", "162040.936000", "162040.939000", "162040.942000", "162040.945000", "162040.948000", "162040.951000", "162040.954000", "162040.957000", "162040.960000", "162040.963000", "162040.966000", "162040.969000", "162040.972000", "162040.975000", "162040.978000", "162040.981000", "162040.984000", "162040.987000", "162040.990000"],
      "InstanceNumber": [1, 2, 3, 4, 5, 6, 7, 8, 9, 10, 11, 12, 13, 14, 15, 16, 17, 18, 19, 20, 21, 22, 23, 24, 25, 26, 27, 28, 29, 30, 31, 32, 33, 34, 35, 36, 37, 38, 39, 40, 41, 42, 43, 44, 45, 46, 47, 48, 49, 50, 51, 52, 53, 54, 55, 56, 57, 58, 59, 60, 61, 62, 63, 64, 65, 66, 67, 68, 69, 70, 71, 72, 73, 74, 75, 76, 77, 78, 79, 80, 81, 82, 83, 84, 85, 86, 87, 88, 89, 90, 91, 92, 93, 94, 95, 96, 97, 98, 99, 100, 101, 102, 103, 104, 105, 106, 107, 108, 109, 110, 111, 112, 113, 114, 115, 116, 117, 118, 119, 120, 121, 122, 123, 124, 125, 126, 127, 128, 129, 130, 131, 132, 133, 134, 135, 136, 137, 138, 139, 140, 141, 142, 143, 144, 145, 146, 147, 148, 149, 150, 151, 152, 153, 154, 155, 156, 157, 158, 159, 160, 161, 162, 163, 164, 165, 166, 167, 168, 169, 170, 171, 172, 173, 174, 175, 176, 177, 178, 179, 180, 181, 182, 183, 184, 185, 186, 187, 188, 189, 190, 191, 192, 193, 194, 195, 196, 197, 198, 199, 200, 201, 202, 203, 204, 205, 206, 207, 208, 209, 210, 211, 212, 213, 214, 215, 216, 217, 218, 219, 220, 221, 222, 223, 224, 225, 226, 227, 228, 229, 230, 231, 232, 233, 234, 235, 236, 237, 238, 239, 240, 241, 242, 243, 244, 245, 246, 247, 248, 249, 250, 251, 252, 253, 254, 255, 256, 257, 258, 259, 260, 261, 262, 263, 264, 265, 266, 267, 268, 269, 270, 271, 272, 273, 274, 275, 276, 277, 278, 279, 280, 281, 282, 283, 284, 285, 286, 287, 288, 289, 290, 291, 292, 293, 294, 295, 296, 297, 298, 299, 300, 301, 302, 303, 304, 305, 306, 307, 308, 309, 310, 311, 312, 313, 314, 315, 316, 317, 318, 319, 320, 321, 322, 323, 324, 325, 326, 327, 328, 329, 330, 331, 332, 333, 334, 335, 336, 337, 338, 339, 340, 341, 342, 343, 344, 345, 346, 347, 348, 349, 350, 351, 352, 353, 354, 355, 356, 357, 358, 359, 360, 361, 362, 363, 364, 365, 366, 367, 368, 369, 370, 371, 372, 373],
