{
  "AcquisitionMatrixPE": 104,
  "AcquisitionNumber": 1,
  "AcquisitionTime": "15:51:43.127500",
  "BandwidthPerPixelPhaseEncode": 17.17,
  "BaseResolution": 104,
  "BodyPartExamined": "BRAIN",
  "CoilString": "HC1-7;NC1_2",
  "ConsistencyInfo": "N4_VE11C_LATEST_20160120",
  "ConversionSoftware": "dcm2niix",
  "ConversionSoftwareVersion": "v1.0.20190902",
  "DerivedVendorReportedEchoSpacing": 0.000560011,
  "DeviceSerialNumber": "167006",
  "DwellTime": 2.1e-06,
  "EchoTime": 0.037,
  "EchoTrainLength": 104,
  "EffectiveEchoSpacing": 0.000560011,
  "FlipAngle": 52,
  "ImageComments": "Unaliased_MB4_PE3_LB",
  "ImageOrientationPatientDICOM": [0.999791, -0.0193367, 0.0066493, 0.0204189, 0.92678, -0.375049],
  "ImageType": [
    "ORIGINAL",
    "PRIMARY",
    "M",
    "MB",
    "ND",
    "MOSAIC"
],
  "ImagingFrequency": 123.259,
  "InPlanePhaseEncodingDirectionDICOM": "COL",
  "InstitutionAddress": "Chemin_Queen-Mary_4565_Montreal_District_CA_H3W_1W5",
  "InstitutionName": "IUGM",
  "InstitutionalDepartmentName": "Department",
  "MRAcquisitionType": "2D",
  "MagneticFieldStrength": 3,
  "Manufacturer": "Siemens",
  "ManufacturersModelName": "Prisma_fit",
  "Modality": "MR",
  "MultibandAccelerationFactor": 4,
  "PartialFourier": 1,
  "PatientPosition": "HFS",
  "PercentPhaseFOV": 100,
  "PhaseEncodingDirection": "j",
  "PhaseEncodingSteps": 104,
  "PhaseResolution": 1,
  "PixelBandwidth": 2290,
  "ProcedureStepDescription": "language_harrypotter",
  "ProtocolName": "func_task-harrypotter_run-2",
  "PulseSequenceDetails": "%CustomerSeq%_cmrr_mbep2d_bold",
  "ReceiveCoilActiveElements": "HC1-7;NC1,2",
  "ReceiveCoilName": "HeadNeck_64",
  "ReconMatrixPE": 104,
  "RepetitionTime": 1.49,
  "SAR": 0.0310184,
  "ScanOptions": "FS",
  "ScanningSequence": "EP",
  "SequenceName": "epfid2d1_104",
  "SequenceVariant": "SK_SS",
  "SeriesDescription": "func_task-harrypotter_run-2",
  "SeriesNumber": 11,
  "ShimSetting": [628, -7252, -8834, 591, 1, -236, -69, -9],
  "SliceThickness": 2,
  "SliceTiming": [0, 0.785, 0.0975, 0.8825, 0.195, 0.98, 0.295, 1.0775, 0.3925, 1.175, 0.49, 1.275, 0.5875, 1.3725, 0.685, 0, 0.785, 0.0975, 0.8825, 0.195, 0.98, 0.295, 1.0775, 0.3925, 1.175, 0.49, 1.275, 0.5875, 1.3725, 0.685, 0, 0.785, 0.0975, 0.8825, 0.195, 0.98, 0.295, 1.0775, 0.3925, 1.175, 0.49, 1.275, 0.5875, 1.3725, 0.685, 0, 0.785, 0.0975, 0.8825, 0.195, 0.98, 0.295, 1.0775, 0.3925, 1.175, 0.49, 1.275, 0.5875, 1.3725, 0.685],
  "SoftwareVersions": "syngo_MR_E11",
  "SpacingBetweenSlices": 2,
  "StationName": "MRC35049",
  "TaskName": "harrypotter",
  "TotalReadoutTime": 0.0576811,
  "TxRefAmp": 219.786,
  "WipMemBlock": "13d0304b-34d2-4389-88fc-eb9be35ef500||Sequence: R016 ve11c/master r/e634e98; Dec 19 2017 11:00:25 by eja",
  "dcmmeta_affine": [
    [-1.9995818138122559, 0.040837839245796204, -0.0021795202046632767, 105.08019256591797],
    [0.03867333009839058, 1.853559970855713, -0.7502131462097168, -63.70176696777344],
    [0.013298607431352139, 0.750098466873169, 1.8539620637893677, -69.67892456054688],
    [0.0, 0.0, 0.0, 1.0]
],
  "dcmmeta_reorient_transform": [
    [0.0, -1.0, 0.0, 103.0],
    [1.0, 0.0, 0.0, 0.0],
    [0.0, 0.0, 1.0, 0.0],
    [0.0, 0.0, 0.0, 1.0]
],
  "dcmmeta_shape": [104, 104, 60, 471],
  "dcmmeta_slice_dim": 2,
  "dcmmeta_version": 0.6,
  "global": {
    "const": {
      "AcquisitionMatrix": [104, 0, 0, 104],
      "AngioFlag": "N",
      "BitsAllocated": 16,
      "BitsStored": 16,
      "BodyPartExamined": "BRAIN",
      "Columns": 832,
      "EchoNumbers": 1,
      "EchoTime": 37.0,
      "EchoTrainLength": 104,
      "FlipAngle": 52.0,
      "HighBit": 15,
      "ImageOrientationPatient": [0.99979091820163, -0.0193366657061, 0.00664930379229, 0.02041892025899, 0.92677998320126, -0.3750492373448],
      "ImagePositionPatient": [-851.99925485545, -787.8336452097, 275.77637243178],
      "ImageType": [
        "ORIGINAL",
        "PRIMARY",
        "M",
        "MB",
        "ND",
        "MOSAIC"
],
      "ImagedNucleus": "1H",
      "ImagingFrequency": 123.258967,
      "InPlanePhaseEncodingDirection": "COL",
      "MRAcquisitionType": "2D",
      "MagneticFieldStrength": 3.0,
      "Manufacturer": "SIEMENS",
      "ManufacturerModelName": "Prisma_fit",
      "Modality": "MR",
      "NumberOfAverages": 1.0,
      "NumberOfPhaseEncodingSteps": 104,
      "PercentPhaseFieldOfView": 100.0,
      "PercentSampling": 100.0,
      "PerformedProcedureStepStartTime": "151905.512000",
      "PhotometricInterpretation": "MONOCHROME2",
      "PixelBandwidth": 2290.0,
      "PixelRepresentation": 0,
      "PixelSpacing": [2.0, 2.0],
      "ProtocolName": "func_task-harrypotter_run-2",
      "RepetitionTime": 1490.0,
      "Rows": 832,
      "SAR": 0.03101836995281,
      "SamplesPerPixel": 1,
      "ScanOptions": "FS",
      "ScanningSequence": "EP",
      "SequenceName": "epfid2d1_104",
      "SequenceVariant": [
        "SK",
        "SS"
],
      "SeriesDescription": "func_task-harrypotter_run-2",
      "SeriesNumber": 11,
      "SeriesTime": "155306.610000",
      "SliceLocation": -40.810599570634,
      "SliceThickness": 2.0,
      "SmallestImagePixelValue": 0,
      "SoftwareVersions": "syngo MR E11",
      "SpacingBetweenSlices": 1.9999999564556,
      "SpecificCharacterSet": "ISO_IR 100",
      "StudyID": "1",
      "StudyTime": "151905.401000",
      "TransmitCoilName": "Body",
      "VariableFlipAngleFlag": "N",
      "WindowCenterWidthExplanation": "Algo1",
      "dBdt": 0.0},
    "slices": {}
  },
  "time": {
    "samples": {
      "AcquisitionNumber": [1, 2, 3, 4, 5, 6, 7, 8, 9, 10, 11, 12, 13, 14, 15, 16, 17, 18, 19, 20, 21, 22, 23, 24, 25, 26, 27, 28, 29, 30, 31, 32, 33, 34, 35, 36, 37, 38, 39, 40, 41, 42, 43, 44, 45, 46, 47, 48, 49, 50, 51, 52, 53, 54, 55, 56, 57, 58, 59, 60, 61, 62, 63, 64, 65, 66, 67, 68, 69, 70, 71, 72, 73, 74, 75, 76, 77, 78, 79, 80, 81, 82, 83, 84, 85, 86, 87, 88, 89, 90, 91, 92, 93, 94, 95, 96, 97, 98, 99, 100, 101, 102, 103, 104, 105, 106, 107, 108, 109, 110, 111, 112, 113, 114, 115, 116, 117, 118, 119, 120, 121, 122, 123, 124, 125, 126, 127, 128, 129, 130, 131, 132, 133, 134, 135, 136, 137, 138, 139, 140, 141, 142, 143, 144, 145, 146, 147, 148, 149, 150, 151, 152, 153, 154, 155, 156, 157, 158, 159, 160, 161, 162, 163, 164, 165, 166, 167, 168, 169, 170, 171, 172, 173, 174, 175, 176, 177, 178, 179, 180, 181, 182, 183, 184, 185, 186, 187, 188, 189, 190, 191, 192, 193, 194, 195, 196, 197, 198, 199, 200, 201, 202, 203, 204, 205, 206, 207, 208, 209, 210, 211, 212, 213, 214, 215, 216, 217, 218, 219, 220, 221, 222, 223, 224, 225, 226, 227, 228, 229, 230, 231, 232, 233, 234, 235, 236, 237, 238, 239, 240, 241, 242, 243, 244, 245, 246, 247, 248, 249, 250, 251, 252, 253, 254, 255, 256, 257, 258, 259, 260, 261, 262, 263, 264, 265, 266, 267, 268, 269, 270, 271, 272, 273, 274, 275, 276, 277, 278, 279, 280, 281, 282, 283, 284, 285, 286, 287, 288, 289, 290, 291, 292, 293, 294, 295, 296, 297, 298, 299, 300, 301, 302, 303, 304, 305, 306, 307, 308, 309, 310, 311, 312, 313, 314, 315, 316, 317, 318, 319, 320, 321, 322, 323, 324, 325, 326, 327, 328, 329, 330, 331, 332, 333, 334, 335, 336, 337, 338, 339, 340, 341, 342, 343, 344, 345, 346, 347, 348, 349, 350, 351, 352, 353, 354, 355, 356, 357, 358, 359, 360, 361, 362, 363, 364, 365, 366, 367, 368, 369, 370, 371, 372, 373, 374, 375, 376, 377, 378, 379, 380, 381, 382, 383, 384, 385, 386, 387, 388, 389, 390, 391, 392, 393, 394, 395, 396, 397, 398, 399, 400, 401, 402, 403, 404, 405, 406, 407, 408, 409, 410, 411, 412, 413, 414, 415, 416, 417, 418, 419, 420, 421, 422, 423, 424, 425, 426, 427, 428, 429, 430, 431, 432, 433, 434, 435, 436, 437, 438, 439, 440, 441, 442, 443, 444, 445, 446, 447, 448, 449, 450, 451, 452, 453, 454, 455, 456, 457, 458, 459, 460, 461, 462, 463, 464, 465, 466, 467, 468, 469, 470, 471],
      "AcquisitionTime": ["155143.127500", "155144.617500", "155146.107500", "155147.597500", "155149.087500", "155150.577500", "155152.067500", "155153.557500", "155155.047500", "155156.537500", "155158.027500", "155159.517500", "155201.007500", "155202.497500", "155203.987500", "155205.477500", "155206.967500", "155208.457500", "155209.947500", "155211.437500", "155212.927500", "155214.417500", "155215.907500", "155217.397500", "155218.887500", "155220.377500", "155221.867500", "155223.357500", "155224.847500", "155226.337500", "155227.827500", "155229.317500", "155230.807500", "155232.297500", "155233.787500", "155235.277500", "155236.767500", "155238.257500", "155239.747500", "155241.237500", "155242.727500", "155244.217500", "155245.707500", "155247.197500", "155248.687500", "155250.177500", "155251.667500", "155253.157500", "155254.647500", "155256.137500", "155257.627500", "155259.117500", "155300.607500", "155302.097500", "155303.587500", "155305.077500", "155306.567500", "155308.057500", "155309.547500", "155311.037500", "155312.527500", "155314.017500", "155315.507500", "155316.997500", "155318.487500", "155319.977500", "155321.467500", "155322.957500", "155324.447500", "155325.937500", "155327.427500", "155328.917500", "155330.407500", "155331.897500", "155333.387500", "155334.877500", "155336.367500", "155337.857500", "155339.347500", "155340.837500", "155342.327500", "155343.817500", "155345.307500", "155346.797500", "155348.287500", "155349.777500", "155351.267500", "155352.757500", "155354.247500", "155355.737500", "155357.227500", "155358.717500", "155400.207500", "155401.697500", "155403.187500", "155404.677500", "155406.167500", "155407.657500", "155409.147500", "155410.637500", "155412.127500", "155413.617500", "155415.107500", "155416.597500", "155418.087500", "155419.577500", "155421.067500", "155422.557500", "155424.047500", "155425.537500", "155427.027500", "155428.517500", "155430.007500", "155431.497500", "155432.987500", "155434.477500", "155435.967500", "155437.457500", "155438.947500", "155440.437500", "155441.927500", "155443.417500", "155444.907500", "155446.397500", "155447.887500", "155449.377500", "155450.867500", "155452.357500", "155453.847500", "155455.337500", "155456.827500", "155458.317500", "155459.807500", "155501.297500", "155502.787500", "155504.277500", "155505.767500", "155507.257500", "155508.747500", "155510.237500", "155511.727500", "155513.217500", "155514.707500", "155516.197500", "155517.687500", "155519.177500", "155520.667500", "155522.157500", "155523.647500", "155525.137500", "155526.627500", "155528.117500", "155529.607500", "155531.097500", "155532.587500", "155534.077500", "155535.567500", "155537.057500", "155538.547500", "155540.037500", "155541.527500", "155543.017500", "155544.507500", "155545.997500", "155547.487500", "155548.977500", "155550.467500", "155551.957500", "155553.447500", "155554.937500", "155556.427500", "155557.917500", "155559.407500", "155600.897500", "155602.387500", "155603.877500", "155605.367500", "155606.857500", "155608.347500", "155609.837500", "155611.327500", "155612.817500", "155614.307500", "155615.797500", "155617.287500", "155618.777500", "155620.267500", "155621.757500", "155623.247500", "155624.737500", "155626.227500", "155627.717500", "155629.207500", "155630.697500", "155632.187500", "155633.677500", "155635.167500", "155636.657500", "155638.147500", "155639.637500", "155641.127500", "155642.617500", "155644.107500", "155645.597500", "155647.087500", "155648.577500", "155650.067500", "155651.557500", "155653.047500", "155654.537500", "155656.027500", "155657.517500", "155659.007500", "155700.497500", "155701.987500", "155703.477500", "155704.967500", "155706.457500", "155707.947500", "155709.437500", "155710.927500", "155712.417500", "155713.907500", "155715.397500", "155716.887500", "155718.377500", "155719.867500", "155721.357500", "155722.847500", "155724.337500", "155725.827500", "155727.317500", "155728.807500", "155730.297500", "155731.787500", "155733.277500", "155734.767500", "155736.257500", "155737.747500", "155739.237500", "155740.727500", "155742.217500", "155743.707500", "155745.197500", "155746.687500", "155748.177500", "155749.667500", "155751.157500", "155752.647500", "155754.137500", "155755.627500", "155757.117500", "155758.607500", "155800.097500", "155801.587500", "155803.077500", "155804.567500", "155806.057500", "155807.547500", "155809.037500", "155810.527500", "155812.017500", "155813.507500", "155814.997500", "155816.487500", "155817.977500", "155819.467500", "155820.957500", "155822.447500", "155823.937500", "155825.427500", "155826.917500", "155828.407500", "155829.897500", "155831.387500", "155832.877500", "155834.367500", "155835.857500", "155837.347500", "155838.837500", "155840.327500", "155841.817500", "155843.307500", "155844.797500", "155846.287500", "155847.777500", "155849.267500", "155850.757500", "155852.247500", "155853.737500", "155855.227500", "155856.717500", "155858.207500", "155859.697500", "155901.187500", "155902.677500", "155904.167500", "155905.657500", "155907.147500", "155908.637500", "155910.127500", "155911.617500", "155913.107500", "155914.597500", "155916.087500", "155917.577500", "155919.067500", "155920.557500", "155922.047500", "155923.537500", "155925.027500", "155926.517500", "155928.007500", "155929.497500", "155930.987500", "155932.477500", "155933.967500", "155935.457500", "155936.947500", "155938.437500", "155939.927500", "155941.417500", "155942.907500", "155944.397500", "155945.887500", "155947.377500", "155948.867500", "155950.357500", "155951.847500", "155953.337500", "155954.827500", "155956.317500", "155957.807500", "155959.297500", "160000.787500", "160002.277500", "160003.767500", "160005.257500", "160006.747500", "160008.237500", "160009.727500", "160011.217500", "160012.707500", "160014.197500", "160015.687500", "160017.177500", "160018.667500", "160020.157500", "160021.647500", "160023.137500", "160024.627500", "160026.117500", "160027.607500", "160029.097500", "160030.587500", "160032.077500", "160033.567500", "160035.057500", "160036.547500", "160038.037500", "160039.527500", "160041.017500", "160042.507500", "160043.997500", "160045.487500", "160046.977500", "160048.467500", "160049.957500", "160051.447500", "160052.937500", "160054.427500", "160055.917500", "160057.407500", "160058.897500", "160100.387500", "160101.877500", "160103.367500", "160104.857500", "160106.347500", "160107.837500", "160109.327500", "160110.817500", "160112.307500", "160113.797500", "160115.287500", "160116.777500", "160118.267500", "160119.757500", "160121.247500", "160122.737500", "160124.227500", "160125.717500", "160127.207500", "160128.697500", "160130.187500", "160131.677500", "160133.167500", "160134.657500", "160136.147500", "160137.637500", "160139.127500", "160140.617500", "160142.107500", "160143.597500", "160145.087500", "160146.577500", "160148.067500", "160149.557500", "160151.047500", "160152.537500", "160154.027500", "160155.517500", "160157.007500", "160158.497500", "160159.987500", "160201.477500", "160202.967500", "160204.457500", "160205.947500", "160207.437500", "160208.927500", "160210.417500", "160211.907500", "160213.397500", "160214.887500", "160216.377500", "160217.867500", "160219.357500", "160220.847500", "160222.337500", "160223.827500", "160225.317500", "160226.807500", "160228.297500", "160229.787500", "160231.277500", "160232.767500", "160234.257500", "160235.747500", "160237.237500", "160238.727500", "160240.217500", "160241.707500", "160243.197500", "160244.687500", "160246.177500", "160247.667500", "160249.157500", "160250.647500", "160252.137500", "160253.627500", "160255.117500", "160256.607500", "160258.097500", "160259.587500", "160301.077500", "160302.567500", "160304.057500", "160305.547500", "160307.037500", "160308.527500", "160310.017500", "160311.507500", "160312.997500", "160314.487500", "160315.977500", "160317.467500", "160318.957500", "160320.447500", "160321.937500", "160323.427500"],
      "ContentTime": ["155306.613000", "155306.616000", "155306.619000", "155306.622000", "155306.625000", "155306.628000", "155306.636000", "155306.639000", "155306.642000", "155306.645000", "155306.648000", "155306.651000", "155306.654000", "155306.657000", "155306.660000", "155306.663000", "155306.666000", "155306.669000", "155306.672000", "155306.675000", "155306.678000", "155306.680000", "155306.684000", "155306.686000", "155306.689000", "155306.692000", "155306.695000", "155306.698000", "155306.701000", "155326.577000", "155326.580000", "155326.583000", "155326.586000", "155326.599000", "155326.602000", "155326.605000", "155326.608000", "155326.611000", "155326.614000", "155326.617000", "155326.620000", "155326.623000", "155326.625000", "155326.628000", "155326.631000", "155326.634000", "155326.637000", "155326.640000", "155326.643000", "155346.577000", "155346.580000", "155346.583000", "155346.586000", "155346.589000", "155346.592000", "155346.595000", "155346.598000", "155346.601000", "155346.603000", "155346.606000", "155346.609000", "155346.612000", "155346.615000", "155346.626000", "155346.629000", "155346.632000", "155346.635000", "155346.638000", "155346.641000", "155406.577000", "155406.580000", "155406.590000", "155406.593000", "155406.596000", "155406.599000", "155406.602000", "155406.605000", "155406.608000", "155406.610000", "155406.614000", "155406.617000", "155406.619000", "155406.622000", "155406.626000", "155406.629000", "155406.632000", "155406.635000", "155406.638000", "155406.641000", "155406.643000", "155446.577000", "155446.580000", "155446.593000", "155446.596000", "155446.599000", "155446.602000", "155446.605000", "155446.607000", "155446.610000", "155446.613000", "155446.616000", "155446.619000", "155446.622000", "155446.625000", "155446.628000", "155446.631000", "155446.634000", "155446.637000", "155446.647000", "155446.650000", "155446.653000", "155446.656000", "155446.659000", "155446.662000", "155446.665000", "155446.668000", "155446.671000", "155446.674000", "155446.676000", "155446.680000", "155446.682000", "155446.685000", "155526.577000", "155526.580000", "155526.583000", "155526.586000", "155526.592000", "155526.595000", "155526.598000", "155526.601000", "155526.604000", "155526.607000", "155526.610000", "155526.613000", "155526.616000", "155526.619000", "155526.622000", "155526.625000", "155526.628000", "155526.631000", "155526.634000", "155526.637000", "155526.640000", "155526.642000", "155526.645000", "155526.648000", "155526.651000", "155526.654000", "155526.657000", "155606.577000", "155606.580000", "155606.583000", "155606.586000", "155606.589000", "155606.592000", "155606.595000", "155606.598000", "155606.601000", "155606.604000", "155606.607000", "155606.610000", "155606.613000", "155606.616000", "155606.619000", "155606.622000", "155606.625000", "155606.627000", "155606.631000", "155606.638000", "155606.641000", "155606.644000", "155606.647000", "155606.650000", "155606.653000", "155606.656000", "155606.659000", "155646.577000", "155646.580000", "155646.583000", "155646.586000", "155646.589000", "155646.592000", "155646.595000", "155646.598000", "155646.601000", "155646.604000", "155646.607000", "155646.611000", "155646.615000", "155646.619000", "155646.622000", "155646.625000", "155646.628000", "155646.647000", "155646.650000", "155646.653000", "155646.655000", "155646.658000", "155646.661000", "155646.664000", "155646.667000", "155646.670000", "155726.578000", "155726.589000", "155726.592000", "155726.596000", "155726.599000", "155726.602000", "155726.605000", "155726.608000", "155726.611000", "155726.614000", "155726.616000", "155726.620000", "155726.623000", "155726.626000", "155726.635000", "155726.638000", "155726.641000", "155726.644000", "155726.647000", "155726.650000", "155726.653000", "155726.656000", "155726.659000", "155726.662000", "155726.664000", "155726.667000", "155726.670000", "155806.577000", "155806.580000", "155806.583000", "155806.586000", "155806.589000", "155806.592000", "155806.595000", "155806.598000", "155806.601000", "155806.604000", "155806.607000", "155806.610000", "155806.613000", "155806.616000", "155806.619000", "155806.622000", "155806.625000", "155806.628000", "155806.631000", "155806.634000", "155806.637000", "155806.639000", "155806.642000", "155806.645000", "155806.648000", "155806.651000", "155806.654000", "155846.577000", "155846.580000", "155846.583000", "155846.586000", "155846.589000", "155846.592000", "155846.595000", "155846.598000", "155846.601000", "155846.604000", "155846.607000", "155846.610000", "155846.613000", "155846.616000", "155846.619000", "155846.622000", "155846.625000", "155846.628000", "155846.631000", "155846.633000", "155846.636000", "155846.640000", "155846.642000", "155846.645000", "155846.648000", "155846.651000", "155846.654000", "155926.577000", "155926.580000", "155926.583000", "155926.586000", "155926.589000", "155926.592000", "155926.595000", "155926.598000", "155926.601000", "155926.604000", "155926.607000", "155926.621000", "155926.624000", "155926.627000", "155926.630000", "155926.633000", "155926.636000", "155926.639000", "155926.642000", "155926.645000", "155926.648000", "155926.651000", "155926.654000", "155926.657000", "155926.660000", "155926.663000", "155926.666000", "160006.577000", "160006.580000", "160006.583000", "160006.594000", "160006.597000", "160006.600000", "160006.603000", "160006.606000", "160006.609000", "160006.612000", "160006.615000", "160006.618000", "160006.621000", "160006.624000", "160006.627000", "160006.630000", "160006.633000", "160006.636000", "160006.639000", "160006.648000", "160006.651000", "160006.654000", "160006.657000", "160006.660000", "160006.663000", "160006.666000", "160006.669000", "160046.577000", "160046.580000", "160046.583000", "160046.586000", "160046.589000", "160046.592000", "160046.595000", "160046.598000", "160046.601000", "160046.604000", "160046.607000", "160046.610000", "160046.613000", "160046.616000", "160046.619000", "160046.622000", "160046.625000", "160046.627000", "160046.631000", "160046.633000", "160046.636000", "160046.639000", "160046.642000", "160046.645000", "160046.648000", "160046.651000", "160046.654000", "160126.577000", "160126.580000", "160126.583000", "160126.586000", "160126.589000", "160126.592000", "160126.595000", "160126.598000", "160126.601000", "160126.605000", "160126.608000", "160126.611000", "160126.614000", "160126.617000", "160126.620000", "160126.623000", "160126.626000", "160126.629000", "160126.632000", "160126.635000", "160126.638000", "160126.641000", "160126.644000", "160126.647000", "160126.650000", "160126.653000", "160206.578000", "160206.581000", "160206.584000", "160206.587000", "160206.590000", "160206.601000", "160206.604000", "160206.607000", "160206.610000", "160206.613000", "160206.616000", "160206.619000", "160206.622000", "160206.625000", "160206.628000", "160206.631000", "160206.634000", "160206.637000", "160206.640000", "160206.643000", "160206.646000", "160206.648000", "160206.651000", "160206.654000", "160206.657000", "160206.660000", "160206.663000", "160246.577000", "160246.580000", "160246.583000", "160246.586000", "160246.589000", "160246.592000", "160246.595000", "160246.598000", "160246.601000", "160246.604000", "160246.607000", "160246.610000", "160246.613000", "160246.616000", "160246.619000", "160246.622000", "160246.625000", "160246.628000", "160246.631000", "160246.634000", "160246.637000", "160246.640000", "160246.643000", "160246.646000", "160246.649000", "160246.652000", "160246.655000", "160325.980000", "160325.984000", "160325.987000", "160325.990000", "160325.993000", "160325.996000", "160326.000000", "160326.003000", "160326.006000", "160326.009000", "160326.012000", "160326.015000", "160326.018000", "160326.021000", "160326.024000", "160326.027000", "160326.030000", "160326.033000", "160326.036000", "160326.039000", "160326.042000", "160326.045000", "160326.048000", "160326.051000", "160326.054000", "160326.057000", "160326.060000"],
