{
  "AcquisitionMatrixPE": 104,
  "AcquisitionNumber": 1,
  "AcquisitionTime": "16:50:57.082500",
  "BandwidthPerPixelPhaseEncode": 17.17,
  "BaseResolution": 104,
  "BodyPartExamined": "BRAIN",
  "CoilString": "HC1-7;NC1_2",
  "ConsistencyInfo": "N4_VE11C_LATEST_20160120",
  "ConversionSoftware": "dcm2niix",
  "ConversionSoftwareVersion": "v1.0.20190902",
  "DerivedVendorReportedEchoSpacing": 0.000560011,
  "DeviceSerialNumber": "167006",
  "DwellTime": 2.1e-06,
  "EchoTime": 0.037,
  "EchoTrainLength": 104,
  "EffectiveEchoSpacing": 0.000560011,
  "FlipAngle": 52,
  "ImageComments": "Unaliased_MB4_PE3_LB",
  "ImageOrientationPatientDICOM": [0.999791, -0.0193367, 0.0066493, 0.0204189, 0.92678, -0.375049],
  "ImageType": [
    "ORIGINAL",
    "PRIMARY",
    "M",
    "MB",
    "ND",
    "MOSAIC"
],
  "ImagingFrequency": 123.259,
  "InPlanePhaseEncodingDirectionDICOM": "COL",
  "InstitutionAddress": "Chemin_Queen-Mary_4565_Montreal_District_CA_H3W_1W5",
  "InstitutionName": "IUGM",
  "InstitutionalDepartmentName": "Department",
  "MRAcquisitionType": "2D",
  "MagneticFieldStrength": 3,
  "Manufacturer": "Siemens",
  "ManufacturersModelName": "Prisma_fit",
  "Modality": "MR",
  "MultibandAccelerationFactor": 4,
  "PartialFourier": 1,
  "PatientPosition": "HFS",
  "PercentPhaseFOV": 100,
  "PhaseEncodingDirection": "j",
  "PhaseEncodingSteps": 104,
  "PhaseResolution": 1,
  "PixelBandwidth": 2290,
  "ProcedureStepDescription": "language_harrypotter",
  "ProtocolName": "func_task-harrypotter_run-6",
  "PulseSequenceDetails": "%CustomerSeq%_cmrr_mbep2d_bold",
  "ReceiveCoilActiveElements": "HC1-7;NC1,2",
  "ReceiveCoilName": "HeadNeck_64",
  "ReconMatrixPE": 104,
  "RepetitionTime": 1.49,
  "SAR": 0.0310132,
  "ScanOptions": "FS",
  "ScanningSequence": "EP",
  "SequenceName": "epfid2d1_104",
  "SequenceVariant": "SK_SS",
  "SeriesDescription": "func_task-harrypotter_run-6",
  "SeriesNumber": 21,
  "ShimSetting": [628, -7252, -8834, 591, 1, -236, -69, -9],
  "SliceThickness": 2,
  "SliceTiming": [0, 0.785, 0.0975, 0.8825, 0.1975, 0.98, 0.295, 1.0775, 0.3925, 1.1775, 0.49, 1.275, 0.5875, 1.3725, 0.6875, 0, 0.785, 0.0975, 0.8825, 0.1975, 0.98, 0.295, 1.0775, 0.3925, 1.1775, 0.49, 1.275, 0.5875, 1.3725, 0.6875, 0, 0.785, 0.0975, 0.8825, 0.1975, 0.98, 0.295, 1.0775, 0.3925, 1.1775, 0.49, 1.275, 0.5875, 1.3725, 0.6875, 0, 0.785, 0.0975, 0.8825, 0.1975, 0.98, 0.295, 1.0775, 0.3925, 1.1775, 0.49, 1.275, 0.5875, 1.3725, 0.6875],
  "SoftwareVersions": "syngo_MR_E11",
  "SpacingBetweenSlices": 2,
  "StationName": "MRC35049",
  "TaskName": "harrypotter",
  "TotalReadoutTime": 0.0576811,
  "TxRefAmp": 219.786,
  "WipMemBlock": "10149bc0-4e94-44b4-8368-c803450bbc11||Sequence: R016 ve11c/master r/e634e98; Dec 19 2017 11:00:25 by eja",
  "dcmmeta_affine": [
    [-1.9995818138122559, 0.040837839245796204, -0.0021795202046632767, 105.08019256591797],
    [0.03867333009839058, 1.853559970855713, -0.7502131462097168, -63.70176696777344],
    [0.013298607431352139, 0.750098466873169, 1.8539620637893677, -69.67892456054688],
    [0.0, 0.0, 0.0, 1.0]
],
  "dcmmeta_reorient_transform": [
    [0.0, -1.0, 0.0, 103.0],
    [1.0, 0.0, 0.0, 0.0],
    [0.0, 0.0, 1.0, 0.0],
    [0.0, 0.0, 0.0, 1.0]
],
  "dcmmeta_shape": [104, 104, 60, 453],
  "dcmmeta_slice_dim": 2,
  "dcmmeta_version": 0.6,
  "global": {
    "const": {
      "AcquisitionMatrix": [104, 0, 0, 104],
      "AngioFlag": "N",
      "BitsAllocated": 16,
      "BitsStored": 16,
      "BodyPartExamined": "BRAIN",
      "Columns": 832,
      "EchoNumbers": 1,
      "EchoTime": 37.0,
      "EchoTrainLength": 104,
      "FlipAngle": 52.0,
      "HighBit": 15,
      "ImageOrientationPatient": [0.99979091820163, -0.0193366657061, 0.00664930379229, 0.02041892025899, 0.92677998320126, -0.3750492373448],
      "ImagePositionPatient": [-851.99925485545, -787.8336452097, 275.77637243178],
      "ImageType": [
        "ORIGINAL",
        "PRIMARY",
        "M",
        "MB",
        "ND",
        "MOSAIC"
],
      "ImagedNucleus": "1H",
      "ImagingFrequency": 123.258981,
      "InPlanePhaseEncodingDirection": "COL",
      "MRAcquisitionType": "2D",
      "MagneticFieldStrength": 3.0,
      "Manufacturer": "SIEMENS",
      "ManufacturerModelName": "Prisma_fit",
      "Modality": "MR",
      "NumberOfAverages": 1.0,
      "NumberOfPhaseEncodingSteps": 104,
      "PercentPhaseFieldOfView": 100.0,
      "PercentSampling": 100.0,
      "PerformedProcedureStepStartTime": "151905.512000",
      "PhotometricInterpretation": "MONOCHROME2",
      "PixelBandwidth": 2290.0,
      "PixelRepresentation": 0,
      "PixelSpacing": [2.0, 2.0],
      "ProtocolName": "func_task-harrypotter_run-6",
      "RepetitionTime": 1490.0,
      "Rows": 832,
      "SAR": 0.03101320392597,
      "SamplesPerPixel": 1,
      "ScanOptions": "FS",
      "ScanningSequence": "EP",
      "SequenceName": "epfid2d1_104",
      "SequenceVariant": [
        "SK",
        "SS"
],
      "SeriesDescription": "func_task-harrypotter_run-6",
      "SeriesNumber": 21,
      "SeriesTime": "165212.852000",
      "SliceLocation": -40.810599570634,
      "SliceThickness": 2.0,
      "SmallestImagePixelValue": 0,
      "SoftwareVersions": "syngo MR E11",
      "SpacingBetweenSlices": 1.9999999564556,
      "SpecificCharacterSet": "ISO_IR 100",
      "StudyID": "1",
      "StudyTime": "151905.401000",
      "TransmitCoilName": "Body",
      "VariableFlipAngleFlag": "N",
      "WindowCenterWidthExplanation": "Algo1",
      "dBdt": 0.0},
    "slices": {}
  },
  "time": {
    "samples": {
      "AcquisitionNumber": [1, 2, 3, 4, 5, 6, 7, 8, 9, 10, 11, 12, 13, 14, 15, 16, 17, 18, 19, 20, 21, 22, 23, 24, 25, 26, 27, 28, 29, 30, 31, 32, 33, 34, 35, 36, 37, 38, 39, 40, 41, 42, 43, 44, 45, 46, 47, 48, 49, 50, 51, 52, 53, 54, 55, 56, 57, 58, 59, 60, 61, 62, 63, 64, 65, 66, 67, 68, 69, 70, 71, 72, 73, 74, 75, 76, 77, 78, 79, 80, 81, 82, 83, 84, 85, 86, 87, 88, 89, 90, 91, 92, 93, 94, 95, 96, 97, 98, 99, 100, 101, 102, 103, 104, 105, 106, 107, 108, 109, 110, 111, 112, 113, 114, 115, 116, 117, 118, 119, 120, 121, 122, 123, 124, 125, 126, 127, 128, 129, 130, 131, 132, 133, 134, 135, 136, 137, 138, 139, 140, 141, 142, 143, 144, 145, 146, 147, 148, 149, 150, 151, 152, 153, 154, 155, 156, 157, 158, 159, 160, 161, 162, 163, 164, 165, 166, 167, 168, 169, 170, 171, 172, 173, 174, 175, 176, 177, 178, 179, 180, 181, 182, 183, 184, 185, 186, 187, 188, 189, 190, 191, 192, 193, 194, 195, 196, 197, 198, 199, 200, 201, 202, 203, 204, 205, 206, 207, 208, 209, 210, 211, 212, 213, 214, 215, 216, 217, 218, 219, 220, 221, 222, 223, 224, 225, 226, 227, 228, 229, 230, 231, 232, 233, 234, 235, 236, 237, 238, 239, 240, 241, 242, 243, 244, 245, 246, 247, 248, 249, 250, 251, 252, 253, 254, 255, 256, 257, 258, 259, 260, 261, 262, 263, 264, 265, 266, 267, 268, 269, 270, 271, 272, 273, 274, 275, 276, 277, 278, 279, 280, 281, 282, 283, 284, 285, 286, 287, 288, 289, 290, 291, 292, 293, 294, 295, 296, 297, 298, 299, 300, 301, 302, 303, 304, 305, 306, 307, 308, 309, 310, 311, 312, 313, 314, 315, 316, 317, 318, 319, 320, 321, 322, 323, 324, 325, 326, 327, 328, 329, 330, 331, 332, 333, 334, 335, 336, 337, 338, 339, 340, 341, 342, 343, 344, 345, 346, 347, 348, 349, 350, 351, 352, 353, 354, 355, 356, 357, 358, 359, 360, 361, 362, 363, 364, 365, 366, 367, 368, 369, 370, 371, 372, 373, 374, 375, 376, 377, 378, 379, 380, 381, 382, 383, 384, 385, 386, 387, 388, 389, 390, 391, 392, 393, 394, 395, 396, 397, 398, 399, 400, 401, 402, 403, 404, 405, 406, 407, 408, 409, 410, 411, 412, 413, 414, 415, 416, 417, 418, 419, 420, 421, 422, 423, 424, 425, 426, 427, 428, 429, 430, 431, 432, 433, 434, 435, 436, 437, 438, 439, 440, 441, 442, 443, 444, 445, 446, 447, 448, 449, 450, 451, 452, 453],
      "AcquisitionTime": ["165057.082500", "165058.572500", "165100.062500", "165101.552500", "165103.042500", "165104.532500", "165106.022500", "165107.512500", "165109.002500", "165110.492500", "165111.982500", "165113.472500", "165114.962500", "165116.452500", "165117.942500", "165119.432500", "165120.922500", "165122.412500", "165123.902500", "165125.392500", "165126.882500", "165128.372500", "165129.862500", "165131.352500", "165132.842500", "165134.332500", "165135.822500", "165137.312500", "165138.802500", "165140.292500", "165141.782500", "165143.272500", "165144.762500", "165146.252500", "165147.742500", "165149.232500", "165150.722500", "165152.212500", "165153.702500", "165155.192500", "165156.682500", "165158.172500", "165159.662500", "165201.152500", "165202.642500", "165204.132500", "165205.622500", "165207.112500", "165208.602500", "165210.092500", "165211.582500", "165213.072500", "165214.562500", "165216.052500", "165217.542500", "165219.032500", "165220.522500", "165222.012500", "165223.502500", "165224.992500", "165226.482500", "165227.972500", "165229.462500", "165230.952500", "165232.442500", "165233.932500", "165235.422500", "165236.912500", "165238.402500", "165239.892500", "165241.382500", "165242.872500", "165244.362500", "165245.852500", "165247.342500", "165248.832500", "165250.322500", "165251.812500", "165253.302500", "165254.792500", "165256.282500", "165257.772500", "165259.262500", "165300.752500", "165302.242500", "165303.732500", "165305.222500", "165306.712500", "165308.202500", "165309.692500", "165311.182500", "165312.672500", "165314.162500", "165315.652500", "165317.142500", "165318.632500", "165320.122500", "165321.612500", "165323.102500", "165324.592500", "165326.082500", "165327.572500", "165329.062500", "165330.552500", "165332.042500", "165333.532500", "165335.022500", "165336.512500", "165338.002500", "165339.492500", "165340.982500", "165342.472500", "165343.962500", "165345.452500", "165346.942500", "165348.432500", "165349.922500", "165351.412500", "165352.902500", "165354.392500", "165355.882500", "165357.372500", "165358.862500", "165400.352500", "165401.842500", "165403.332500", "165404.822500", "165406.312500", "165407.802500", "165409.292500", "165410.782500", "165412.272500", "165413.762500", "165415.252500", "165416.742500", "165418.232500", "165419.722500", "165421.212500", "165422.702500", "165424.192500", "165425.682500", "165427.172500", "165428.662500", "165430.152500", "165431.642500", "165433.132500", "165434.622500", "165436.112500", "165437.602500", "165439.092500", "165440.582500", "165442.072500", "165443.562500", "165445.052500", "165446.542500", "165448.032500", "165449.522500", "165451.012500", "165452.502500", "165453.992500", "165455.482500", "165456.972500", "165458.462500", "165459.952500", "165501.442500", "165502.932500", "165504.422500", "165505.912500", "165507.402500", "165508.892500", "165510.382500", "165511.872500", "165513.362500", "165514.852500", "165516.342500", "165517.832500", "165519.322500", "165520.812500", "165522.302500", "165523.792500", "165525.282500", "165526.772500", "165528.262500", "165529.752500", "165531.242500", "165532.732500", "165534.222500", "165535.712500", "165537.202500", "165538.692500", "165540.182500", "165541.672500", "165543.162500", "165544.652500", "165546.142500", "165547.632500", "165549.122500", "165550.612500", "165552.102500", "165553.592500", "165555.082500", "165556.572500", "165558.062500", "165559.552500", "165601.042500", "165602.532500", "165604.022500", "165605.512500", "165607.002500", "165608.492500", "165609.982500", "165611.472500", "165612.962500", "165614.452500", "165615.942500", "165617.432500", "165618.922500", "165620.412500", "165621.902500", "165623.392500", "165624.882500", "165626.372500", "165627.862500", "165629.352500", "165630.842500", "165632.332500", "165633.822500", "165635.312500", "165636.802500", "165638.292500", "165639.782500", "165641.272500", "165642.762500", "165644.252500", "165645.742500", "165647.232500", "165648.722500", "165650.212500", "165651.702500", "165653.192500", "165654.682500", "165656.172500", "165657.662500", "165659.152500", "165700.642500", "165702.132500", "165703.622500", "165705.112500", "165706.602500", "165708.092500", "165709.582500", "165711.072500", "165712.562500", "165714.052500", "165715.542500", "165717.032500", "165718.522500", "165720.012500", "165721.502500", "165722.992500", "165724.482500", "165725.972500", "165727.462500", "165728.952500", "165730.442500", "165731.932500", "165733.422500", "165734.912500", "165736.402500", "165737.892500", "165739.382500", "165740.872500", "165742.362500", "165743.852500", "165745.342500", "165746.832500", "165748.322500", "165749.812500", "165751.302500", "165752.792500", "165754.282500", "165755.772500", "165757.262500", "165758.752500", "165800.242500", "165801.732500", "165803.222500", "165804.712500", "165806.202500", "165807.692500", "165809.182500", "165810.672500", "165812.162500", "165813.652500", "165815.142500", "165816.632500", "165818.122500", "165819.612500", "165821.102500", "165822.592500", "165824.082500", "165825.572500", "165827.062500", "165828.552500", "165830.042500", "165831.532500", "165833.022500", "165834.512500", "165836.002500", "165837.492500", "165838.982500", "165840.472500", "165841.962500", "165843.452500", "165844.942500", "165846.432500", "165847.922500", "165849.412500", "165850.902500", "165852.392500", "165853.882500", "165855.372500", "165856.862500", "165858.352500", "165859.842500", "165901.332500", "165902.822500", "165904.312500", "165905.802500", "165907.292500", "165908.782500", "165910.272500", "165911.762500", "165913.252500", "165914.742500", "165916.232500", "165917.722500", "165919.212500", "165920.702500", "165922.192500", "165923.682500", "165925.172500", "165926.662500", "165928.152500", "165929.642500", "165931.132500", "165932.622500", "165934.112500", "165935.602500", "165937.092500", "165938.582500", "165940.072500", "165941.562500", "165943.052500", "165944.542500", "165946.032500", "165947.522500", "165949.012500", "165950.502500", "165951.992500", "165953.482500", "165954.972500", "165956.462500", "165957.952500", "165959.442500", "170000.932500", "170002.422500", "170003.912500", "170005.402500", "170006.892500", "170008.382500", "170009.872500", "170011.362500", "170012.852500", "170014.342500", "170015.832500", "170017.322500", "170018.812500", "170020.302500", "170021.792500", "170023.282500", "170024.772500", "170026.262500", "170027.752500", "170029.242500", "170030.732500", "170032.222500", "170033.712500", "170035.202500", "170036.692500", "170038.182500", "170039.672500", "170041.162500", "170042.652500", "170044.142500", "170045.632500", "170047.122500", "170048.612500", "170050.102500", "170051.592500", "170053.082500", "170054.572500", "170056.062500", "170057.552500", "170059.042500", "170100.532500", "170102.022500", "170103.512500", "170105.002500", "170106.492500", "170107.982500", "170109.472500", "170110.962500", "170112.452500", "170113.942500", "170115.432500", "170116.922500", "170118.412500", "170119.902500", "170121.392500", "170122.882500", "170124.372500", "170125.862500", "170127.352500", "170128.842500", "170130.332500", "170131.822500", "170133.312500", "170134.802500", "170136.292500", "170137.782500", "170139.272500", "170140.762500", "170142.252500", "170143.742500", "170145.232500", "170146.722500", "170148.212500", "170149.702500", "170151.192500", "170152.682500", "170154.172500", "170155.662500", "170157.152500", "170158.642500", "170200.132500", "170201.622500", "170203.112500", "170204.602500", "170206.092500", "170207.582500", "170209.072500", "170210.562500"],
      "ContentTime": ["165212.855000", "165212.859000", "165212.862000", "165212.865000", "165212.868000", "165212.871000", "165212.874000", "165212.877000", "165212.880000", "165212.883000", "165212.890000", "165212.893000", "165212.896000", "165212.899000", "165212.902000", "165212.905000", "165212.908000", "165212.913000", "165212.916000", "165212.919000", "165232.822000", "165232.825000", "165232.828000", "165232.831000", "165232.834000", "165232.847000", "165232.850000", "165232.852000", "165232.855000", "165232.858000", "165232.861000", "165232.864000", "165232.867000", "165232.870000", "165232.873000", "165232.876000", "165232.879000", "165232.882000", "165232.885000", "165232.888000", "165232.891000", "165252.822000", "165252.825000", "165252.831000", "165252.834000", "165252.837000", "165252.840000", "165252.842000", "165252.846000", "165252.848000", "165252.851000", "165252.854000", "165252.857000", "165252.860000", "165252.863000", "165252.866000", "165252.869000", "165252.872000", "165252.875000", "165252.878000", "165252.881000", "165312.822000", "165312.825000", "165312.828000", "165312.831000", "165312.834000", "165312.837000", "165312.840000", "165312.843000", "165312.846000", "165312.849000", "165312.852000", "165312.855000", "165312.857000", "165312.860000", "165312.863000", "165312.866000", "165312.869000", "165312.872000", "165312.875000", "165312.878000", "165332.821000", "165332.835000", "165332.838000", "165332.841000", "165332.844000", "165332.847000", "165332.850000", "165332.853000", "165332.856000", "165332.859000", "165332.862000", "165332.865000", "165332.868000", "165332.871000", "165332.874000", "165332.877000", "165332.880000", "165332.883000", "165332.886000", "165332.889000", "165412.821000", "165412.824000", "165412.827000", "165412.830000", "165412.833000", "165412.836000", "165412.839000", "165412.842000", "165412.845000", "165412.848000", "165412.851000", "165412.854000", "165412.857000", "165412.860000", "165412.863000", "165412.866000", "165412.869000", "165412.872000", "165412.875000", "165412.878000", "165412.881000", "165412.884000", "165412.887000", "165412.890000", "165412.893000", "165412.896000", "165412.899000", "165412.902000", "165412.905000", "165452.822000", "165452.825000", "165452.828000", "165452.831000", "165452.834000", "165452.837000", "165452.840000", "165452.843000", "165452.846000", "165452.849000", "165452.852000", "165452.855000", "165452.858000", "165452.860000", "165452.864000", "165452.866000", "165452.869000", "165452.872000", "165452.875000", "165452.878000", "165452.881000", "165452.884000", "165452.887000", "165452.890000", "165452.893000", "165452.896000", "165452.899000", "165532.822000", "165532.825000", "165532.828000", "165532.831000", "165532.834000", "165532.837000", "165532.840000", "165532.843000", "165532.846000", "165532.849000", "165532.852000", "165532.855000", "165532.858000", "165532.861000", "165532.864000", "165532.867000", "165532.870000", "165532.873000", "165532.876000", "165532.886000", "165532.889000", "165532.892000", "165532.895000", "165532.898000", "165532.901000", "165532.904000", "165532.907000", "165612.821000", "165612.824000", "165612.827000", "165612.848000", "165612.853000", "165612.856000", "165612.859000", "165612.862000", "165612.865000", "165612.868000", "165612.871000", "165612.874000", "165612.877000", "165612.880000", "165612.883000", "165612.886000", "165612.889000", "165612.892000", "165612.895000", "165612.898000", "165612.901000", "165612.904000", "165612.907000", "165612.910000", "165612.913000", "165612.916000", "165612.919000", "165652.822000", "165652.825000", "165652.828000", "165652.831000", "165652.834000", "165652.837000", "165652.846000", "165652.849000", "165652.852000", "165652.855000", "165652.858000", "165652.861000", "165652.864000", "165652.867000", "165652.870000", "165652.873000", "165652.876000", "165652.879000", "165652.882000", "165652.885000", "165652.888000", "165652.891000", "165652.894000", "165652.897000", "165652.900000", "165652.903000", "165652.906000", "165732.822000", "165732.825000", "165732.828000", "165732.831000", "165732.834000", "165732.837000", "165732.840000", "165732.843000", "165732.846000", "165732.849000", "165732.852000", "165732.855000", "165732.858000", "165732.861000", "165732.864000", "165732.876000", "165732.879000", "165732.882000", "165732.885000", "165732.888000", "165732.891000", "165732.894000", "165732.897000", "165732.900000", "165732.903000", "165732.905000", "165732.909000", "165812.821000", "165812.824000", "165812.827000", "165812.830000", "165812.833000", "165812.836000", "165812.839000", "165812.842000", "165812.845000", "165812.848000", "165812.851000", "165812.854000", "165812.857000", "165812.860000", "165812.863000", "165812.866000", "165812.869000", "165812.872000", "165812.875000", "165812.878000", "165812.881000", "165812.884000", "165812.887000", "165812.900000", "165812.903000", "165812.906000", "165852.821000", "165852.824000", "165852.827000", "165852.830000", "165852.833000", "165852.836000", "165852.839000", "165852.842000", "165852.845000", "165852.848000", "165852.851000", "165852.854000", "165852.857000", "165852.860000", "165852.863000", "165852.866000", "165852.869000", "165852.872000", "165852.875000", "165852.878000", "165852.881000", "165852.884000", "165852.887000", "165852.890000", "165852.893000", "165852.896000", "165852.898000", "165932.822000", "165932.825000", "165932.828000", "165932.831000", "165932.834000", "165932.837000", "165932.840000", "165932.843000", "165932.846000", "165932.849000", "165932.852000", "165932.855000", "165932.858000", "165932.861000", "165932.864000", "165932.876000", "165932.879000", "165932.882000", "165932.885000", "165932.888000", "165932.891000", "165932.893000", "165932.897000", "165932.900000", "165932.902000", "165932.905000", "165932.909000", "170012.822000", "170012.825000", "170012.828000", "170012.831000", "170012.834000", "170012.837000", "170012.840000", "170012.843000", "170012.846000", "170012.849000", "170012.852000", "170012.855000", "170012.858000", "170012.861000", "170012.864000", "170012.867000", "170012.870000", "170012.873000", "170012.876000", "170012.879000", "170012.882000", "170012.885000", "170012.888000", "170012.891000", "170012.894000", "170012.897000", "170012.900000", "170052.821000", "170052.824000", "170052.827000", "170052.835000", "170052.838000", "170052.841000", "170052.844000", "170052.847000", "170052.850000", "170052.853000", "170052.856000", "170052.859000", "170052.862000", "170052.865000", "170052.868000", "170052.871000", "170052.874000", "170052.877000", "170052.880000", "170052.882000", "170052.886000", "170052.888000", "170052.891000", "170052.894000", "170052.897000", "170052.900000", "170052.903000", "170132.822000", "170132.825000", "170132.828000", "170132.831000", "170132.834000", "170132.837000", "170132.840000", "170132.843000", "170132.846000", "170132.849000", "170132.852000", "170132.855000", "170132.858000", "170132.861000", "170132.864000", "170132.867000", "170132.870000", "170132.873000", "170132.876000", "170132.879000", "170132.882000", "170132.885000", "170132.888000", "170132.891000", "170132.893000", "170132.896000", "170132.899000", "170212.822000", "170212.825000", "170212.828000", "170212.832000", "170212.835000", "170212.838000", "170212.841000", "170212.844000", "170212.847000", "170212.850000", "170212.853000", "170212.856000", "170212.866000", "170212.878000", "170212.882000", "170212.890000", "170212.895000", "170212.898000", "170212.902000", "170212.905000", "170212.908000", "170212.912000", "170212.915000", "170212.918000", "170212.922000", "170212.925000", "170212.988000"],
