{
  "AcquisitionMatrixPE": 104,
  "AcquisitionNumber": 1,
  "AcquisitionTime": "16:55:32.012500",
  "BandwidthPerPixelPhaseEncode": 17.17,
  "BaseResolution": 104,
  "BodyPartExamined": "BRAIN",
  "CoilString": "HC1-7;NC1_2",
  "ConsistencyInfo": "N4_VE11C_LATEST_20160120",
  "ConversionSoftware": "dcm2niix",
  "ConversionSoftwareVersion": "v1.0.20190902",
  "DerivedVendorReportedEchoSpacing": 0.000560011,
  "DeviceSerialNumber": "167006",
  "DwellTime": 2.1e-06,
  "EchoTime": 0.037,
  "EchoTrainLength": 104,
  "EffectiveEchoSpacing": 0.000560011,
  "FlipAngle": 52,
  "ImageComments": "Unaliased_MB4_PE3_LB",
  "ImageOrientationPatientDICOM": [0.99931, 0.0125864, 0.0349313, -0.00593009, 0.982818, -0.184481],
  "ImageType": [
    "ORIGINAL",
    "PRIMARY",
    "M",
    "MB",
    "ND",
    "MOSAIC"
],
  "ImagingFrequency": 123.259,
  "InPlanePhaseEncodingDirectionDICOM": "COL",
  "InstitutionAddress": "Chemin_Queen-Mary_4565_Montreal_District_CA_H3W_1W5",
  "InstitutionName": "IUGM",
  "InstitutionalDepartmentName": "Department",
  "MRAcquisitionType": "2D",
  "MagneticFieldStrength": 3,
  "Manufacturer": "Siemens",
  "ManufacturersModelName": "Prisma_fit",
  "Modality": "MR",
  "MultibandAccelerationFactor": 4,
  "PartialFourier": 1,
  "PatientPosition": "HFS",
  "PercentPhaseFOV": 100,
  "PhaseEncodingDirection": "j",
  "PhaseEncodingSteps": 104,
  "PhaseResolution": 1,
  "PixelBandwidth": 2290,
  "ProcedureStepDescription": "language_harrypotter",
  "ProtocolName": "func_task-harrypotter_run-5",
  "PulseSequenceDetails": "%CustomerSeq%_cmrr_mbep2d_bold",
  "ReceiveCoilActiveElements": "HC1-7;NC1,2",
  "ReceiveCoilName": "HeadNeck_64",
  "ReconMatrixPE": 104,
  "RepetitionTime": 1.49,
  "SAR": 0.0331136,
  "ScanOptions": "FS",
  "ScanningSequence": "EP",
  "SequenceName": "epfid2d1_104",
  "SequenceVariant": "SK_SS",
  "SeriesDescription": "func_task-harrypotter_run-5",
  "SeriesNumber": 29,
  "ShimSetting": [649, -7259, -8734, 681, 61, -108, 145, 7],
  "SliceThickness": 2,
  "SliceTiming": [0, 0.785, 0.0975, 0.8825, 0.195, 0.98, 0.295, 1.0775, 0.3925, 1.175, 0.49, 1.275, 0.5875, 1.3725, 0.685, 0, 0.785, 0.0975, 0.8825, 0.195, 0.98, 0.295, 1.0775, 0.3925, 1.175, 0.49, 1.275, 0.5875, 1.3725, 0.685, 0, 0.785, 0.0975, 0.8825, 0.195, 0.98, 0.295, 1.0775, 0.3925, 1.175, 0.49, 1.275, 0.5875, 1.3725, 0.685, 0, 0.785, 0.0975, 0.8825, 0.195, 0.98, 0.295, 1.0775, 0.3925, 1.175, 0.49, 1.275, 0.5875, 1.3725, 0.685],
  "SoftwareVersions": "syngo_MR_E11",
  "SpacingBetweenSlices": 2,
  "StationName": "MRC35049",
  "TaskName": "harrypotter",
  "TotalReadoutTime": 0.0576811,
  "TxRefAmp": 210.253,
  "WipMemBlock": "9a7d48f1-3e44-4ca2-9f6a-97b01c238219||Sequence: R016 ve11c/master r/e634e98; Dec 19 2017 11:00:25 by eja",
  "dcmmeta_affine": [
    [-1.998620867729187, -0.011860180646181107, 0.07330610603094101, 107.33969116210938],
    [-0.025172797963023186, 1.9656366109848022, -0.36829233169555664, -77.83991241455078],
    [0.06986257433891296, 0.36896100640296936, 1.964430570602417, -35.12871551513672],
    [0.0, 0.0, 0.0, 1.0]
],
  "dcmmeta_reorient_transform": [
    [0.0, -1.0, 0.0, 103.0],
    [1.0, 0.0, 0.0, 0.0],
    [0.0, 0.0, 1.0, 0.0],
    [0.0, 0.0, 0.0, 1.0]
],
  "dcmmeta_shape": [104, 104, 60, 566],
  "dcmmeta_slice_dim": 2,
  "dcmmeta_version": 0.6,
  "global": {
    "const": {
      "AcquisitionMatrix": [104, 0, 0, 104],
      "AngioFlag": "N",
      "BitsAllocated": 16,
      "BitsStored": 16,
      "BodyPartExamined": "BRAIN",
      "Columns": 832,
      "EchoNumbers": 1,
      "EchoTime": 37.0,
      "EchoTrainLength": 104,
      "FlipAngle": 52.0,
      "HighBit": 15,
      "ImageOrientationPatient": [0.99931045618796, 0.01258639865639, 0.03493128572325, -0.0059300904432, 0.98281828245012, -0.1844805076672],
      "ImagePositionPatient": [-829.29899978206, -849.27526073592, 111.74610152971],
      "ImageType": [
        "ORIGINAL",
        "PRIMARY",
        "M",
        "MB",
        "ND",
        "MOSAIC"
],
      "ImagedNucleus": "1H",
      "ImagingFrequency": 123.25895,
      "InPlanePhaseEncodingDirection": "COL",
      "MRAcquisitionType": "2D",
      "MagneticFieldStrength": 3.0,
      "Manufacturer": "SIEMENS",
      "ManufacturerModelName": "Prisma_fit",
      "Modality": "MR",
      "NumberOfAverages": 1.0,
      "NumberOfPhaseEncodingSteps": 104,
      "PercentPhaseFieldOfView": 100.0,
      "PercentSampling": 100.0,
      "PerformedProcedureStepStartTime": "153849.661000",
      "PhotometricInterpretation": "MONOCHROME2",
      "PixelBandwidth": 2290.0,
      "PixelRepresentation": 0,
      "PixelSpacing": [2.0, 2.0],
      "ProtocolName": "func_task-harrypotter_run-5",
      "RepetitionTime": 1490.0,
      "Rows": 832,
      "SAR": 0.03311356798341,
      "SamplesPerPixel": 1,
      "ScanOptions": "FS",
      "ScanningSequence": "EP",
      "SequenceName": "epfid2d1_104",
      "SequenceVariant": [
        "SK",
        "SS"
],
      "SeriesDescription": "func_task-harrypotter_run-5",
      "SeriesNumber": 29,
      "SeriesTime": "165655.786000",
      "SliceLocation": -16.235712325874,
      "SliceThickness": 2.0,
      "SmallestImagePixelValue": 0,
      "SoftwareVersions": "syngo MR E11",
      "SpacingBetweenSlices": 2.0000000651826,
      "SpecificCharacterSet": "ISO_IR 100",
      "StudyID": "1",
      "StudyTime": "153849.607000",
      "TransmitCoilName": "Body",
      "VariableFlipAngleFlag": "N",
      "WindowCenterWidthExplanation": "Algo1",
      "dBdt": 0.0},
    "slices": {}
  },
  "time": {
    "samples": {
      "AcquisitionNumber": [1, 2, 3, 4, 5, 6, 7, 8, 9, 10, 11, 12, 13, 14, 15, 16, 17, 18, 19, 20, 21, 22, 23, 24, 25, 26, 27, 28, 29, 30, 31, 32, 33, 34, 35, 36, 37, 38, 39, 40, 41, 42, 43, 44, 45, 46, 47, 48, 49, 50, 51, 52, 53, 54, 55, 56, 57, 58, 59, 60, 61, 62, 63, 64, 65, 66, 67, 68, 69, 70, 71, 72, 73, 74, 75, 76, 77, 78, 79, 80, 81, 82, 83, 84, 85, 86, 87, 88, 89, 90, 91, 92, 93, 94, 95, 96, 97, 98, 99, 100, 101, 102, 103, 104, 105, 106, 107, 108, 109, 110, 111, 112, 113, 114, 115, 116, 117, 118, 119, 120, 121, 122, 123, 124, 125, 126, 127, 128, 129, 130, 131, 132, 133, 134, 135, 136, 137, 138, 139, 140, 141, 142, 143, 144, 145, 146, 147, 148, 149, 150, 151, 152, 153, 154, 155, 156, 157, 158, 159, 160, 161, 162, 163, 164, 165, 166, 167, 168, 169, 170, 171, 172, 173, 174, 175, 176, 177, 178, 179, 180, 181, 182, 183, 184, 185, 186, 187, 188, 189, 190, 191, 192, 193, 194, 195, 196, 197, 198, 199, 200, 201, 202, 203, 204, 205, 206, 207, 208, 209, 210, 211, 212, 213, 214, 215, 216, 217, 218, 219, 220, 221, 222, 223, 224, 225, 226, 227, 228, 229, 230, 231, 232, 233, 234, 235, 236, 237, 238, 239, 240, 241, 242, 243, 244, 245, 246, 247, 248, 249, 250, 251, 252, 253, 254, 255, 256, 257, 258, 259, 260, 261, 262, 263, 264, 265, 266, 267, 268, 269, 270, 271, 272, 273, 274, 275, 276, 277, 278, 279, 280, 281, 282, 283, 284, 285, 286, 287, 288, 289, 290, 291, 292, 293, 294, 295, 296, 297, 298, 299, 300, 301, 302, 303, 304, 305, 306, 307, 308, 309, 310, 311, 312, 313, 314, 315, 316, 317, 318, 319, 320, 321, 322, 323, 324, 325, 326, 327, 328, 329, 330, 331, 332, 333, 334, 335, 336, 337, 338, 339, 340, 341, 342, 343, 344, 345, 346, 347, 348, 349, 350, 351, 352, 353, 354, 355, 356, 357, 358, 359, 360, 361, 362, 363, 364, 365, 366, 367, 368, 369, 370, 371, 372, 373, 374, 375, 376, 377, 378, 379, 380, 381, 382, 383, 384, 385, 386, 387, 388, 389, 390, 391, 392, 393, 394, 395, 396, 397, 398, 399, 400, 401, 402, 403, 404, 405, 406, 407, 408, 409, 410, 411, 412, 413, 414, 415, 416, 417, 418, 419, 420, 421, 422, 423, 424, 425, 426, 427, 428, 429, 430, 431, 432, 433, 434, 435, 436, 437, 438, 439, 440, 441, 442, 443, 444, 445, 446, 447, 448, 449, 450, 451, 452, 453, 454, 455, 456, 457, 458, 459, 460, 461, 462, 463, 464, 465, 466, 467, 468, 469, 470, 471, 472, 473, 474, 475, 476, 477, 478, 479, 480, 481, 482, 483, 484, 485, 486, 487, 488, 489, 490, 491, 492, 493, 494, 495, 496, 497, 498, 499, 500, 501, 502, 503, 504, 505, 506, 507, 508, 509, 510, 511, 512, 513, 514, 515, 516, 517, 518, 519, 520, 521, 522, 523, 524, 525, 526, 527, 528, 529, 530, 531, 532, 533, 534, 535, 536, 537, 538, 539, 540, 541, 542, 543, 544, 545, 546, 547, 548, 549, 550, 551, 552, 553, 554, 555, 556, 557, 558, 559, 560, 561, 562, 563, 564, 565, 566],
      "AcquisitionTime": ["165532.012500", "165533.502500", "165534.992500", "165536.482500", "165537.972500", "165539.462500", "165540.952500", "165542.442500", "165543.932500", "165545.422500", "165546.912500", "165548.402500", "165549.892500", "165551.382500", "165552.872500", "165554.362500", "165555.852500", "165557.342500", "165558.832500", "165600.322500", "165601.812500", "165603.302500", "165604.792500", "165606.282500", "165607.772500", "165609.262500", "165610.752500", "165612.242500", "165613.732500", "165615.222500", "165616.712500", "165618.202500", "165619.692500", "165621.182500", "165622.672500", "165624.162500", "165625.652500", "165627.142500", "165628.632500", "165630.122500", "165631.612500", "165633.102500", "165634.592500", "165636.082500", "165637.572500", "165639.062500", "165640.552500", "165642.042500", "165643.532500", "165645.022500", "165646.512500", "165648.002500", "165649.492500", "165650.982500", "165652.472500", "165653.962500", "165655.452500", "165656.942500", "165658.432500", "165659.922500", "165701.412500", "165702.902500", "165704.392500", "165705.882500", "165707.372500", "165708.862500", "165710.352500", "165711.842500", "165713.332500", "165714.822500", "165716.312500", "165717.802500", "165719.292500", "165720.782500", "165722.272500", "165723.762500", "165725.252500", "165726.742500", "165728.232500", "165729.722500", "165731.212500", "165732.702500", "165734.192500", "165735.682500", "165737.172500", "165738.662500", "165740.152500", "165741.642500", "165743.132500", "165744.622500", "165746.112500", "165747.602500", "165749.092500", "165750.582500", "165752.072500", "165753.562500", "165755.052500", "165756.542500", "165758.032500", "165759.522500", "165801.012500", "165802.502500", "165803.992500", "165805.482500", "165806.972500", "165808.462500", "165809.952500", "165811.442500", "165812.932500", "165814.422500", "165815.912500", "165817.402500", "165818.892500", "165820.382500", "165821.872500", "165823.362500", "165824.852500", "165826.342500", "165827.832500", "165829.322500", "165830.812500", "165832.302500", "165833.792500", "165835.282500", "165836.772500", "165838.262500", "165839.752500", "165841.242500", "165842.732500", "165844.222500", "165845.712500", "165847.202500", "165848.692500", "165850.182500", "165851.672500", "165853.162500", "165854.652500", "165856.142500", "165857.632500", "165859.122500", "165900.612500", "165902.102500", "165903.592500", "165905.082500", "165906.572500", "165908.062500", "165909.552500", "165911.042500", "165912.532500", "165914.022500", "165915.512500", "165917.002500", "165918.492500", "165919.982500", "165921.472500", "165922.962500", "165924.452500", "165925.942500", "165927.432500", "165928.922500", "165930.412500", "165931.902500", "165933.392500", "165934.882500", "165936.372500", "165937.862500", "165939.352500", "165940.842500", "165942.332500", "165943.822500", "165945.312500", "165946.802500", "165948.292500", "165949.782500", "165951.272500", "165952.762500", "165954.252500", "165955.742500", "165957.232500", "165958.722500", "170000.212500", "170001.702500", "170003.192500", "170004.682500", "170006.172500", "170007.662500", "170009.152500", "170010.642500", "170012.132500", "170013.622500", "170015.112500", "170016.602500", "170018.092500", "170019.582500", "170021.072500", "170022.562500", "170024.052500", "170025.542500", "170027.032500", "170028.522500", "170030.012500", "170031.502500", "170032.992500", "170034.482500", "170035.972500", "170037.462500", "170038.952500", "170040.442500", "170041.932500", "170043.422500", "170044.912500", "170046.402500", "170047.892500", "170049.382500", "170050.872500", "170052.362500", "170053.852500", "170055.342500", "170056.832500", "170058.322500", "170059.812500", "170101.302500", "170102.792500", "170104.282500", "170105.772500", "170107.262500", "170108.752500", "170110.242500", "170111.732500", "170113.222500", "170114.712500", "170116.202500", "170117.692500", "170119.182500", "170120.672500", "170122.162500", "170123.652500", "170125.142500", "170126.632500", "170128.122500", "170129.612500", "170131.102500", "170132.592500", "170134.082500", "170135.572500", "170137.062500", "170138.552500", "170140.042500", "170141.532500", "170143.022500", "170144.512500", "170146.002500", "170147.492500", "170148.982500", "170150.472500", "170151.962500", "170153.452500", "170154.942500", "170156.432500", "170157.922500", "170159.412500", "170200.902500", "170202.392500", "170203.882500", "170205.372500", "170206.862500", "170208.352500", "170209.842500", "170211.332500", "170212.822500", "170214.312500", "170215.802500", "170217.292500", "170218.782500", "170220.272500", "170221.762500", "170223.252500", "170224.742500", "170226.232500", "170227.722500", "170229.212500", "170230.702500", "170232.192500", "170233.682500", "170235.172500", "170236.662500", "170238.152500", "170239.642500", "170241.132500", "170242.622500", "170244.112500", "170245.602500", "170247.092500", "170248.582500", "170250.072500", "170251.562500", "170253.052500", "170254.542500", "170256.032500", "170257.522500", "170259.012500", "170300.502500", "170301.992500", "170303.482500", "170304.972500", "170306.462500", "170307.952500", "170309.442500", "170310.932500", "170312.422500", "170313.912500", "170315.402500", "170316.892500", "170318.382500", "170319.872500", "170321.362500", "170322.852500", "170324.342500", "170325.832500", "170327.322500", "170328.812500", "170330.302500", "170331.792500", "170333.282500", "170334.772500", "170336.262500", "170337.752500", "170339.242500", "170340.732500", "170342.222500", "170343.712500", "170345.202500", "170346.692500", "170348.182500", "170349.672500", "170351.162500", "170352.652500", "170354.142500", "170355.632500", "170357.122500", "170358.612500", "170400.102500", "170401.592500", "170403.082500", "170404.572500", "170406.062500", "170407.552500", "170409.042500", "170410.532500", "170412.022500", "170413.512500", "170415.002500", "170416.492500", "170417.982500", "170419.472500", "170420.962500", "170422.452500", "170423.942500", "170425.432500", "170426.922500", "170428.412500", "170429.902500", "170431.392500", "170432.882500", "170434.372500", "170435.862500", "170437.352500", "170438.842500", "170440.332500", "170441.822500", "170443.312500", "170444.802500", "170446.292500", "170447.782500", "170449.272500", "170450.762500", "170452.252500", "170453.742500", "170455.232500", "170456.722500", "170458.212500", "170459.702500", "170501.192500", "170502.682500", "170504.172500", "170505.662500", "170507.152500", "170508.642500", "170510.132500", "170511.622500", "170513.112500", "170514.602500", "170516.092500", "170517.582500", "170519.072500", "170520.562500", "170522.052500", "170523.542500", "170525.032500", "170526.522500", "170528.012500", "170529.502500", "170530.992500", "170532.482500", "170533.972500", "170535.462500", "170536.952500", "170538.442500", "170539.932500", "170541.422500", "170542.912500", "170544.402500", "170545.892500", "170547.382500", "170548.872500", "170550.362500", "170551.852500", "170553.342500", "170554.832500", "170556.322500", "170557.812500", "170559.302500", "170600.792500", "170602.282500", "170603.772500", "170605.262500", "170606.752500", "170608.242500", "170609.732500", "170611.222500", "170612.712500", "170614.202500", "170615.692500", "170617.182500", "170618.672500", "170620.162500", "170621.652500", "170623.142500", "170624.632500", "170626.122500", "170627.612500", "170629.102500", "170630.592500", "170632.082500", "170633.572500", "170635.062500", "170636.552500", "170638.042500", "170639.532500", "170641.022500", "170642.512500", "170644.002500", "170645.492500", "170646.982500", "170648.472500", "170649.962500", "170651.452500", "170652.942500", "170654.432500", "170655.922500", "170657.412500", "170658.902500", "170700.392500", "170701.882500", "170703.372500", "170704.862500", "170706.352500", "170707.842500", "170709.332500", "170710.822500", "170712.312500", "170713.802500", "170715.292500", "170716.782500", "170718.272500", "170719.762500", "170721.252500", "170722.742500", "170724.232500", "170725.722500", "170727.212500", "170728.702500", "170730.192500", "170731.682500", "170733.172500", "170734.662500", "170736.152500", "170737.642500", "170739.132500", "170740.622500", "170742.112500", "170743.602500", "170745.092500", "170746.582500", "170748.072500", "170749.562500", "170751.052500", "170752.542500", "170754.032500", "170755.522500", "170757.012500", "170758.502500", "170759.992500", "170801.482500", "170802.972500", "170804.462500", "170805.952500", "170807.442500", "170808.932500", "170810.422500", "170811.912500", "170813.402500", "170814.892500", "170816.382500", "170817.872500", "170819.362500", "170820.852500", "170822.342500", "170823.832500", "170825.322500", "170826.812500", "170828.302500", "170829.792500", "170831.282500", "170832.772500", "170834.262500", "170835.752500", "170837.242500", "170838.732500", "170840.222500", "170841.712500", "170843.202500", "170844.692500", "170846.182500", "170847.672500", "170849.162500", "170850.652500", "170852.142500", "170853.632500", "170855.122500", "170856.612500", "170858.102500", "170859.592500", "170901.082500", "170902.572500", "170904.062500", "170905.552500", "170907.042500", "170908.532500", "170910.022500", "170911.512500", "170913.002500", "170914.492500", "170915.982500", "170917.472500", "170918.962500", "170920.452500", "170921.942500", "170923.432500", "170924.922500", "170926.412500", "170927.902500", "170929.392500", "170930.882500", "170932.372500", "170933.862500"],
      "ContentTime": ["165655.789000", "165655.792000", "165655.795000", "165655.802000", "165655.809000", "165655.812000", "165655.814000", "165655.817000", "165655.820000", "165655.823000", "165655.826000", "165655.829000", "165655.832000", "165655.835000", "165655.837000", "165655.840000", "165655.843000", "165655.846000", "165655.849000", "165655.852000", "165655.855000", "165655.858000", "165655.860000", "165655.863000", "165655.866000", "165655.869000", "165655.872000", "165655.875000", "165715.755000", "165715.758000", "165715.761000", "165715.764000", "165715.767000", "165715.769000", "165715.772000", "165715.775000", "165715.778000", "165715.781000", "165715.784000", "165715.787000", "165715.790000", "165715.792000", "165715.795000", "165715.798000", "165715.801000", "165715.804000", "165715.807000", "165715.814000", "165735.755000", "165735.758000", "165735.761000", "165735.764000", "165735.767000", "165735.770000", "165735.773000", "165735.775000", "165735.778000", "165735.781000", "165735.784000", "165735.787000", "165735.790000", "165735.793000", "165735.796000", "165735.798000", "165735.801000", "165735.804000", "165735.807000", "165735.810000", "165755.755000", "165755.758000", "165755.761000", "165755.764000", "165755.767000", "165755.769000", "165755.772000", "165755.775000", "165755.778000", "165755.781000", "165755.784000", "165755.787000", "165755.789000", "165755.792000", "165755.795000", "165755.798000", "165755.801000", "165755.804000", "165755.807000", "165755.809000", "165815.755000", "165815.758000", "165815.761000", "165815.764000", "165815.767000", "165815.770000", "165815.772000", "165815.775000", "165815.778000", "165815.781000", "165815.784000", "165815.787000", "165815.790000", "165815.792000", "165815.795000", "165815.798000", "165815.801000", "165815.804000", "165815.818000", "165815.821000", "165815.824000", "165855.755000", "165855.758000", "165855.761000", "165855.764000", "165855.767000", "165855.770000", "165855.773000", "165855.775000", "165855.778000", "165855.781000", "165855.784000", "165855.787000", "165855.790000", "165855.793000", "165855.796000", "165855.799000", "165855.802000", "165855.806000", "165855.809000", "165855.812000", "165855.815000", "165855.818000", "165855.820000", "165855.823000", "165855.826000", "165855.829000", "165855.832000", "165935.755000", "165935.758000", "165935.761000", "165935.764000", "165935.767000", "165935.769000", "165935.772000", "165935.775000", "165935.778000", "165935.781000", "165935.784000", "165935.787000", "165935.790000", "165935.792000", "165935.795000", "165935.798000", "165935.801000", "165935.804000", "165935.807000", "165935.810000", "165935.813000", "165935.816000", "165935.819000", "165935.822000", "165935.825000", "165935.828000", "170015.755000", "170015.758000", "170015.761000", "170015.764000", "170015.767000", "170015.770000", "170015.773000", "170015.775000", "170015.778000", "170015.781000", "170015.784000", "170015.787000", "170015.790000", "170015.793000", "170015.796000", "170015.798000", "170015.801000", "170015.804000", "170015.807000", "170015.810000", "170015.813000", "170015.816000", "170015.819000", "170015.821000", "170015.824000", "170015.827000", "170015.830000", "170055.755000", "170055.758000", "170055.761000", "170055.764000", "170055.767000", "170055.770000", "170055.773000", "170055.776000", "170055.779000", "170055.782000", "170055.785000", "170055.788000", "170055.791000", "170055.794000", "170055.797000", "170055.799000", "170055.802000", "170055.805000", "170055.808000", "170055.811000", "170055.814000", "170055.817000", "170055.820000", "170055.823000", "170055.826000", "170055.828000", "170055.831000", "170115.756000", "170115.759000", "170115.762000", "170115.765000", "170115.768000", "170115.771000", "170115.774000", "170115.777000", "170115.780000", "170115.783000", "170115.786000", "170115.789000", "170115.791000", "170115.794000", "170155.755000", "170155.758000", "170155.761000", "170155.764000", "170155.767000", "170155.770000", "170155.773000", "170155.775000", "170155.778000", "170155.781000", "170155.784000", "170155.787000", "170155.790000", "170155.793000", "170155.796000", "170155.799000", "170155.802000", "170155.805000", "170155.808000", "170155.811000", "170155.814000", "170155.817000", "170155.820000", "170155.823000", "170155.826000", "170155.828000", "170235.755000", "170235.758000", "170235.761000", "170235.764000", "170235.767000", "170235.770000", "170235.773000", "170235.775000", "170235.778000", "170235.781000", "170235.784000", "170235.787000", "170235.790000", "170235.793000", "170235.796000", "170235.799000", "170235.802000", "170235.805000", "170235.808000", "170235.810000", "170235.813000", "170235.816000", "170235.819000", "170235.822000", "170235.825000", "170235.828000", "170235.831000", "170315.755000", "170315.758000", "170315.761000", "170315.764000", "170315.767000", "170315.770000", "170315.773000", "170315.776000", "170315.779000", "170315.781000", "170315.784000", "170315.797000", "170315.800000", "170315.803000", "170315.805000", "170315.808000", "170315.811000", "170315.814000", "170315.817000", "170315.820000", "170315.823000", "170315.826000", "170315.829000", "170315.832000", "170315.835000", "170315.838000", "170315.841000", "170355.755000", "170355.758000", "170355.761000", "170355.764000", "170355.767000", "170355.770000", "170355.773000", "170355.776000", "170355.778000", "170355.781000", "170355.784000", "170355.787000", "170355.790000", "170355.793000", "170355.796000", "170355.799000", "170355.802000", "170355.804000", "170355.807000", "170355.810000", "170355.813000", "170355.816000", "170355.819000", "170355.822000", "170355.825000", "170355.828000", "170355.830000", "170435.755000", "170435.758000", "170435.761000", "170435.764000", "170435.767000", "170435.770000", "170435.772000", "170435.775000", "170435.778000", "170435.781000", "170435.784000", "170435.787000", "170435.790000", "170435.793000", "170435.796000", "170435.799000", "170435.801000", "170435.804000", "170435.807000", "170435.810000", "170435.813000", "170435.816000", "170435.819000", "170435.821000", "170435.825000", "170435.827000", "170435.830000", "170515.755000", "170515.758000", "170515.761000", "170515.764000", "170515.767000", "170515.770000", "170515.772000", "170515.775000", "170515.778000", "170515.781000", "170515.784000", "170515.787000", "170515.790000", "170515.793000", "170515.796000", "170515.798000", "170515.801000", "170515.804000", "170515.807000", "170515.810000", "170515.813000", "170515.816000", "170515.819000", "170515.822000", "170515.824000", "170515.827000", "170515.830000", "170555.756000", "170555.759000", "170555.762000", "170555.765000", "170555.768000", "170555.771000", "170555.774000", "170555.776000", "170555.779000", "170555.782000", "170555.785000", "170555.788000", "170555.791000", "170555.794000", "170555.797000", "170555.800000", "170555.803000", "170555.807000", "170555.810000", "170555.813000", "170555.817000", "170555.820000", "170555.823000", "170555.826000", "170555.829000", "170555.832000", "170635.755000", "170635.758000", "170635.761000", "170635.764000", "170635.767000", "170635.770000", "170635.773000", "170635.775000", "170635.778000", "170635.781000", "170635.784000", "170635.787000", "170635.790000", "170635.793000", "170635.796000", "170635.799000", "170635.801000", "170635.804000", "170635.807000", "170635.810000", "170635.813000", "170635.816000", "170635.819000", "170635.822000", "170635.825000", "170635.828000", "170635.830000", "170715.755000", "170715.758000", "170715.761000", "170715.764000", "170715.767000", "170715.770000", "170715.772000", "170715.775000", "170715.778000", "170715.781000", "170715.784000", "170715.787000", "170715.790000", "170715.793000", "170715.796000", "170715.799000", "170715.801000", "170715.804000", "170715.807000", "170715.810000", "170715.813000", "170715.826000", "170715.829000", "170715.832000", "170715.835000", "170715.838000", "170715.841000", "170755.755000", "170755.758000", "170755.761000", "170755.764000", "170755.767000", "170755.770000", "170755.773000", "170755.775000", "170755.778000", "170755.781000", "170755.784000", "170755.787000", "170755.805000", "170755.807000", "170755.810000", "170755.813000", "170755.816000", "170755.819000", "170755.822000", "170755.825000", "170755.828000", "170755.831000", "170755.833000", "170755.836000", "170755.839000", "170755.842000", "170755.845000", "170835.755000", "170835.758000", "170835.761000", "170835.764000", "170835.767000", "170835.770000", "170835.773000", "170835.776000", "170835.779000", "170835.782000", "170835.784000", "170835.787000", "170835.790000", "170835.793000", "170835.796000", "170835.799000", "170835.802000", "170835.805000", "170835.808000", "170835.811000", "170835.813000", "170835.816000", "170835.819000", "170835.822000", "170835.825000", "170835.828000", "170835.831000", "170915.755000", "170915.758000", "170915.761000", "170915.764000", "170915.767000", "170915.770000", "170915.772000", "170915.775000", "170915.778000", "170915.781000", "170915.784000", "170915.787000", "170915.790000", "170915.793000", "170915.796000", "170915.799000", "170915.802000", "170915.805000", "170915.808000", "170915.810000", "170915.813000", "170915.816000", "170915.819000", "170915.822000", "170915.825000", "170915.828000", "170915.831000", "170936.387000", "170936.390000", "170936.393000", "170936.396000", "170936.399000", "170936.402000", "170936.404000", "170936.407000", "170936.410000", "170936.413000", "170936.416000", "170936.419000", "170936.422000", "170936.425000"],
