{
  "AcquisitionMatrixPE": 104,
  "AcquisitionNumber": 1,
  "AcquisitionTime": "16:00:5.922500",
  "BandwidthPerPixelPhaseEncode": 17.17,
  "BaseResolution": 104,
  "BodyPartExamined": "BRAIN",
  "CoilString": "HC1-7;NC1_2",
  "ConsistencyInfo": "N4_VE11C_LATEST_20160120",
  "ConversionSoftware": "dcm2niix",
  "ConversionSoftwareVersion": "v1.0.20190902",
  "DerivedVendorReportedEchoSpacing": 0.000560011,
  "DeviceSerialNumber": "167006",
  "DwellTime": 2.1e-06,
  "EchoTime": 0.037,
  "EchoTrainLength": 104,
  "EffectiveEchoSpacing": 0.000560011,
  "FlipAngle": 52,
  "ImageComments": "Unaliased_MB4_PE3_LB",
  "ImageOrientationPatientDICOM": [0.999707, 0.00910041, 0.0224397, -0.00296621, 0.965737, -0.259507],
  "ImageType": [
    "ORIGINAL",
    "PRIMARY",
    "M",
    "MB",
    "ND",
    "MOSAIC"
],
  "ImagingFrequency": 123.259,
  "InPlanePhaseEncodingDirectionDICOM": "COL",
  "InstitutionAddress": "Chemin_Queen-Mary_4565_Montreal_District_CA_H3W_1W5",
  "InstitutionName": "IUGM",
  "InstitutionalDepartmentName": "Department",
  "MRAcquisitionType": "2D",
  "MagneticFieldStrength": 3,
  "Manufacturer": "Siemens",
  "ManufacturersModelName": "Prisma_fit",
  "Modality": "MR",
  "MultibandAccelerationFactor": 4,
  "PartialFourier": 1,
  "PatientPosition": "HFS",
  "PercentPhaseFOV": 100,
  "PhaseEncodingDirection": "j",
  "PhaseEncodingSteps": 104,
  "PhaseResolution": 1,
  "PixelBandwidth": 2290,
  "ProcedureStepDescription": "language_harrypotter",
  "ProtocolName": "func_task-harrypotter_run-1",
  "PulseSequenceDetails": "%CustomerSeq%_cmrr_mbep2d_bold",
  "ReceiveCoilActiveElements": "HC1-7;NC1,2",
  "ReceiveCoilName": "HeadNeck_64",
  "ReconMatrixPE": 104,
  "RepetitionTime": 1.49,
  "SAR": 0.0317212,
  "ScanOptions": "FS",
  "ScanningSequence": "EP",
  "SequenceName": "epfid2d1_104",
  "SequenceVariant": "SK_SS",
  "SeriesDescription": "func_task-harrypotter_run-1",
  "SeriesNumber": 14,
  "ShimSetting": [648, -7219, -8735, 676, 56, 2, 76, 10],
  "SliceThickness": 2,
  "SliceTiming": [0, 0.7825, 0.0975, 0.8825, 0.195, 0.98, 0.2925, 1.0775, 0.3925, 1.175, 0.49, 1.2725, 0.5875, 1.3725, 0.685, 0, 0.7825, 0.0975, 0.8825, 0.195, 0.98, 0.2925, 1.0775, 0.3925, 1.175, 0.49, 1.2725, 0.5875, 1.3725, 0.685, 0, 0.7825, 0.0975, 0.8825, 0.195, 0.98, 0.2925, 1.0775, 0.3925, 1.175, 0.49, 1.2725, 0.5875, 1.3725, 0.685, 0, 0.7825, 0.0975, 0.8825, 0.195, 0.98, 0.2925, 1.0775, 0.3925, 1.175, 0.49, 1.2725, 0.5875, 1.3725, 0.685],
  "SoftwareVersions": "syngo_MR_E11",
  "SpacingBetweenSlices": 2,
  "StationName": "MRC35049",
  "TaskName": "harrypotter",
  "TotalReadoutTime": 0.0576811,
  "TxRefAmp": 207.814,
  "WipMemBlock": "85879421-ea52-4003-be9a-debe5bab50e8||Sequence: R016 ve11c/master r/e634e98; Dec 19 2017 11:00:25 by eja",
  "dcmmeta_affine": [
    [-1.9994136095046997, -0.0059324149042367935, 0.048064980655908585, 108.04364776611328],
    [-0.0182008258998394, 1.9314733743667603, -0.518728494644165, -73.95833587646484],
    [0.04487946256995201, 0.5190138220787048, 1.930961012840271, -44.32586669921875],
    [0.0, 0.0, 0.0, 1.0]
],
  "dcmmeta_reorient_transform": [
    [0.0, -1.0, 0.0, 103.0],
    [1.0, 0.0, 0.0, 0.0],
    [0.0, 0.0, 1.0, 0.0],
    [0.0, 0.0, 0.0, 1.0]
],
  "dcmmeta_shape": [104, 104, 60, 455],
  "dcmmeta_slice_dim": 2,
  "dcmmeta_version": 0.6,
  "global": {
    "const": {
      "AcquisitionMatrix": [104, 0, 0, 104],
      "AngioFlag": "N",
      "BitsAllocated": 16,
      "BitsStored": 16,
      "BodyPartExamined": "BRAIN",
      "Columns": 832,
      "EchoNumbers": 1,
      "EchoTime": 37.0,
      "EchoTrainLength": 104,
      "FlipAngle": 52.0,
      "HighBit": 15,
      "ImageOrientationPatient": [0.99970677749351, 0.00910041275092, 0.02243973086548, -0.0029662073796, 0.96573669886523, -0.2595068979404],
      "ImagePositionPatient": [-833.05974051448, -834.66483964235, 181.7174506791],
      "ImageType": [
        "ORIGINAL",
        "PRIMARY",
        "M",
        "MB",
        "ND",
        "MOSAIC"
],
      "ImagedNucleus": "1H",
      "ImagingFrequency": 123.258936,
      "InPlanePhaseEncodingDirection": "COL",
      "MRAcquisitionType": "2D",
      "MagneticFieldStrength": 3.0,
      "Manufacturer": "SIEMENS",
      "ManufacturerModelName": "Prisma_fit",
      "Modality": "MR",
      "NumberOfAverages": 1.0,
      "NumberOfPhaseEncodingSteps": 104,
      "PercentPhaseFieldOfView": 100.0,
      "PercentSampling": 100.0,
      "PerformedProcedureStepStartTime": "153849.661000",
      "PhotometricInterpretation": "MONOCHROME2",
      "PixelBandwidth": 2290.0,
      "PixelRepresentation": 0,
      "PixelSpacing": [2.0, 2.0],
      "ProtocolName": "func_task-harrypotter_run-1",
      "RepetitionTime": 1490.0,
      "Rows": 832,
      "SAR": 0.03172121090889,
      "SamplesPerPixel": 1,
      "ScanOptions": "FS",
      "ScanningSequence": "EP",
      "SequenceName": "epfid2d1_104",
      "SequenceVariant": [
        "SK",
        "SS"
],
      "SeriesDescription": "func_task-harrypotter_run-1",
      "SeriesNumber": 14,
      "SeriesTime": "160120.932000",
      "SliceLocation": -21.017055618012,
      "SliceThickness": 2.0,
      "SmallestImagePixelValue": 0,
      "SoftwareVersions": "syngo MR E11",
      "SpacingBetweenSlices": 1.9999999630239,
      "SpecificCharacterSet": "ISO_IR 100",
      "StudyID": "1",
      "StudyTime": "153849.607000",
      "TransmitCoilName": "Body",
      "VariableFlipAngleFlag": "N",
      "WindowCenterWidthExplanation": "Algo1",
      "dBdt": 0.0},
    "slices": {}
  },
  "time": {
    "samples": {
      "AcquisitionNumber": [1, 2, 3, 4, 5, 6, 7, 8, 9, 10, 11, 12, 13, 14, 15, 16, 17, 18, 19, 20, 21, 22, 23, 24, 25, 26, 27, 28, 29, 30, 31, 32, 33, 34, 35, 36, 37, 38, 39, 40, 41, 42, 43, 44, 45, 46, 47, 48, 49, 50, 51, 52, 53, 54, 55, 56, 57, 58, 59, 60, 61, 62, 63, 64, 65, 66, 67, 68, 69, 70, 71, 72, 73, 74, 75, 76, 77, 78, 79, 80, 81, 82, 83, 84, 85, 86, 87, 88, 89, 90, 91, 92, 93, 94, 95, 96, 97, 98, 99, 100, 101, 102, 103, 104, 105, 106, 107, 108, 109, 110, 111, 112, 113, 114, 115, 116, 117, 118, 119, 120, 121, 122, 123, 124, 125, 126, 127, 128, 129, 130, 131, 132, 133, 134, 135, 136, 137, 138, 139, 140, 141, 142, 143, 144, 145, 146, 147, 148, 149, 150, 151, 152, 153, 154, 155, 156, 157, 158, 159, 160, 161, 162, 163, 164, 165, 166, 167, 168, 169, 170, 171, 172, 173, 174, 175, 176, 177, 178, 179, 180, 181, 182, 183, 184, 185, 186, 187, 188, 189, 190, 191, 192, 193, 194, 195, 196, 197, 198, 199, 200, 201, 202, 203, 204, 205, 206, 207, 208, 209, 210, 211, 212, 213, 214, 215, 216, 217, 218, 219, 220, 221, 222, 223, 224, 225, 226, 227, 228, 229, 230, 231, 232, 233, 234, 235, 236, 237, 238, 239, 240, 241, 242, 243, 244, 245, 246, 247, 248, 249, 250, 251, 252, 253, 254, 255, 256, 257, 258, 259, 260, 261, 262, 263, 264, 265, 266, 267, 268, 269, 270, 271, 272, 273, 274, 275, 276, 277, 278, 279, 280, 281, 282, 283, 284, 285, 286, 287, 288, 289, 290, 291, 292, 293, 294, 295, 296, 297, 298, 299, 300, 301, 302, 303, 304, 305, 306, 307, 308, 309, 310, 311, 312, 313, 314, 315, 316, 317, 318, 319, 320, 321, 322, 323, 324, 325, 326, 327, 328, 329, 330, 331, 332, 333, 334, 335, 336, 337, 338, 339, 340, 341, 342, 343, 344, 345, 346, 347, 348, 349, 350, 351, 352, 353, 354, 355, 356, 357, 358, 359, 360, 361, 362, 363, 364, 365, 366, 367, 368, 369, 370, 371, 372, 373, 374, 375, 376, 377, 378, 379, 380, 381, 382, 383, 384, 385, 386, 387, 388, 389, 390, 391, 392, 393, 394, 395, 396, 397, 398, 399, 400, 401, 402, 403, 404, 405, 406, 407, 408, 409, 410, 411, 412, 413, 414, 415, 416, 417, 418, 419, 420, 421, 422, 423, 424, 425, 426, 427, 428, 429, 430, 431, 432, 433, 434, 435, 436, 437, 438, 439, 440, 441, 442, 443, 444, 445, 446, 447, 448, 449, 450, 451, 452, 453, 454, 455],
      "AcquisitionTime": ["160005.922500", "160007.412500", "160008.902500", "160010.392500", "160011.882500", "160013.372500", "160014.862500", "160016.352500", "160017.842500", "160019.332500", "160020.822500", "160022.312500", "160023.802500", "160025.292500", "160026.782500", "160028.272500", "160029.762500", "160031.252500", "160032.742500", "160034.232500", "160035.722500", "160037.212500", "160038.702500", "160040.192500", "160041.682500", "160043.172500", "160044.662500", "160046.152500", "160047.642500", "160049.132500", "160050.622500", "160052.112500", "160053.602500", "160055.092500", "160056.582500", "160058.072500", "160059.562500", "160101.052500", "160102.542500", "160104.032500", "160105.522500", "160107.012500", "160108.502500", "160109.992500", "160111.482500", "160112.972500", "160114.462500", "160115.952500", "160117.442500", "160118.932500", "160120.422500", "160121.912500", "160123.402500", "160124.892500", "160126.382500", "160127.872500", "160129.362500", "160130.852500", "160132.342500", "160133.832500", "160135.322500", "160136.812500", "160138.302500", "160139.792500", "160141.282500", "160142.772500", "160144.262500", "160145.752500", "160147.242500", "160148.732500", "160150.222500", "160151.712500", "160153.202500", "160154.692500", "160156.182500", "160157.672500", "160159.162500", "160200.652500", "160202.142500", "160203.632500", "160205.122500", "160206.612500", "160208.102500", "160209.592500", "160211.082500", "160212.572500", "160214.062500", "160215.552500", "160217.042500", "160218.532500", "160220.022500", "160221.512500", "160223.002500", "160224.492500", "160225.982500", "160227.472500", "160228.962500", "160230.452500", "160231.942500", "160233.432500", "160234.922500", "160236.412500", "160237.902500", "160239.392500", "160240.882500", "160242.372500", "160243.862500", "160245.352500", "160246.842500", "160248.332500", "160249.822500", "160251.312500", "160252.802500", "160254.292500", "160255.782500", "160257.272500", "160258.762500", "160300.252500", "160301.742500", "160303.232500", "160304.722500", "160306.212500", "160307.702500", "160309.192500", "160310.682500", "160312.172500", "160313.662500", "160315.152500", "160316.642500", "160318.132500", "160319.622500", "160321.112500", "160322.602500", "160324.092500", "160325.582500", "160327.072500", "160328.562500", "160330.052500", "160331.542500", "160333.032500", "160334.522500", "160336.012500", "160337.502500", "160338.992500", "160340.482500", "160341.972500", "160343.462500", "160344.952500", "160346.442500", "160347.932500", "160349.422500", "160350.912500", "160352.402500", "160353.892500", "160355.382500", "160356.872500", "160358.362500", "160359.852500", "160401.342500", "160402.832500", "160404.322500", "160405.812500", "160407.302500", "160408.792500", "160410.282500", "160411.772500", "160413.262500", "160414.752500", "160416.242500", "160417.732500", "160419.222500", "160420.712500", "160422.202500", "160423.692500", "160425.182500", "160426.672500", "160428.162500", "160429.652500", "160431.142500", "160432.632500", "160434.122500", "160435.612500", "160437.102500", "160438.592500", "160440.082500", "160441.572500", "160443.062500", "160444.552500", "160446.042500", "160447.532500", "160449.022500", "160450.512500", "160452.002500", "160453.492500", "160454.982500", "160456.472500", "160457.962500", "160459.452500", "160500.942500", "160502.432500", "160503.922500", "160505.412500", "160506.902500", "160508.392500", "160509.882500", "160511.372500", "160512.862500", "160514.352500", "160515.842500", "160517.332500", "160518.822500", "160520.312500", "160521.802500", "160523.292500", "160524.782500", "160526.272500", "160527.762500", "160529.252500", "160530.742500", "160532.232500", "160533.722500", "160535.212500", "160536.702500", "160538.192500", "160539.682500", "160541.172500", "160542.662500", "160544.152500", "160545.642500", "160547.132500", "160548.622500", "160550.112500", "160551.602500", "160553.092500", "160554.582500", "160556.072500", "160557.562500", "160559.052500", "160600.542500", "160602.032500", "160603.522500", "160605.012500", "160606.502500", "160607.992500", "160609.482500", "160610.972500", "160612.462500", "160613.952500", "160615.442500", "160616.932500", "160618.422500", "160619.912500", "160621.402500", "160622.892500", "160624.382500", "160625.872500", "160627.362500", "160628.852500", "160630.342500", "160631.832500", "160633.322500", "160634.812500", "160636.302500", "160637.792500", "160639.282500", "160640.772500", "160642.262500", "160643.752500", "160645.242500", "160646.732500", "160648.222500", "160649.712500", "160651.202500", "160652.692500", "160654.182500", "160655.672500", "160657.162500", "160658.652500", "160700.142500", "160701.632500", "160703.122500", "160704.612500", "160706.102500", "160707.592500", "160709.082500", "160710.572500", "160712.062500", "160713.552500", "160715.042500", "160716.532500", "160718.022500", "160719.512500", "160721.002500", "160722.492500", "160723.982500", "160725.472500", "160726.962500", "160728.452500", "160729.942500", "160731.432500", "160732.922500", "160734.412500", "160735.902500", "160737.392500", "160738.882500", "160740.372500", "160741.862500", "160743.352500", "160744.842500", "160746.332500", "160747.822500", "160749.312500", "160750.802500", "160752.292500", "160753.782500", "160755.272500", "160756.762500", "160758.252500", "160759.742500", "160801.232500", "160802.722500", "160804.212500", "160805.702500", "160807.192500", "160808.682500", "160810.172500", "160811.662500", "160813.152500", "160814.642500", "160816.132500", "160817.622500", "160819.112500", "160820.602500", "160822.092500", "160823.582500", "160825.072500", "160826.562500", "160828.052500", "160829.542500", "160831.032500", "160832.522500", "160834.012500", "160835.502500", "160836.992500", "160838.482500", "160839.972500", "160841.462500", "160842.952500", "160844.442500", "160845.932500", "160847.422500", "160848.912500", "160850.402500", "160851.892500", "160853.382500", "160854.872500", "160856.362500", "160857.852500", "160859.342500", "160900.832500", "160902.322500", "160903.812500", "160905.302500", "160906.792500", "160908.282500", "160909.772500", "160911.262500", "160912.752500", "160914.242500", "160915.732500", "160917.222500", "160918.712500", "160920.202500", "160921.692500", "160923.182500", "160924.672500", "160926.162500", "160927.652500", "160929.142500", "160930.632500", "160932.122500", "160933.612500", "160935.102500", "160936.592500", "160938.082500", "160939.572500", "160941.062500", "160942.552500", "160944.042500", "160945.532500", "160947.022500", "160948.512500", "160950.002500", "160951.492500", "160952.982500", "160954.472500", "160955.962500", "160957.452500", "160958.942500", "161000.432500", "161001.922500", "161003.412500", "161004.902500", "161006.392500", "161007.882500", "161009.372500", "161010.862500", "161012.352500", "161013.842500", "161015.332500", "161016.822500", "161018.312500", "161019.802500", "161021.292500", "161022.782500", "161024.272500", "161025.762500", "161027.252500", "161028.742500", "161030.232500", "161031.722500", "161033.212500", "161034.702500", "161036.192500", "161037.682500", "161039.172500", "161040.662500", "161042.152500", "161043.642500", "161045.132500", "161046.622500", "161048.112500", "161049.602500", "161051.092500", "161052.582500", "161054.072500", "161055.562500", "161057.052500", "161058.542500", "161100.032500", "161101.522500", "161103.012500", "161104.502500", "161105.992500", "161107.482500", "161108.972500", "161110.462500", "161111.952500", "161113.442500", "161114.932500", "161116.422500", "161117.912500", "161119.402500", "161120.892500", "161122.382500"],
      "ContentTime": ["160120.934000", "160120.938000", "160120.941000", "160120.944000", "160120.947000", "160120.949000", "160120.952000", "160120.955000", "160120.958000", "160120.961000", "160120.964000", "160120.973000", "160120.976000", "160120.979000", "160120.982000", "160120.985000", "160120.988000", "160120.991000", "160140.904000", "160140.907000", "160140.915000", "160140.918000", "160140.921000", "160140.924000", "160140.927000", "160140.930000", "160140.933000", "160140.935000", "160140.945000", "160140.948000", "160140.950000", "160140.953000", "160140.956000", "160140.959000", "160140.962000", "160140.965000", "160140.968000", "160140.970000", "160200.904000", "160200.907000", "160200.910000", "160200.913000", "160200.916000", "160200.918000", "160200.921000", "160200.924000", "160200.927000", "160200.930000", "160200.933000", "160200.936000", "160200.938000", "160200.941000", "160200.944000", "160200.947000", "160200.957000", "160200.960000", "160200.963000", "160200.966000", "160220.904000", "160220.907000", "160220.910000", "160220.913000", "160220.920000", "160220.922000", "160220.925000", "160220.928000", "160220.931000", "160220.934000", "160220.937000", "160220.940000", "160220.943000", "160220.946000", "160220.949000", "160220.951000", "160220.954000", "160220.957000", "160220.960000", "160220.963000", "160220.966000", "160240.904000", "160240.907000", "160240.910000", "160240.913000", "160240.916000", "160240.919000", "160240.922000", "160240.924000", "160240.927000", "160240.930000", "160240.933000", "160240.936000", "160240.939000", "160240.942000", "160240.945000", "160240.947000", "160240.950000", "160240.953000", "160240.956000", "160240.959000", "160320.904000", "160320.907000", "160320.910000", "160320.913000", "160320.916000", "160320.918000", "160320.921000", "160320.924000", "160320.927000", "160320.930000", "160320.933000", "160320.936000", "160320.939000", "160320.942000", "160320.945000", "160320.948000", "160320.951000", "160320.962000", "160320.965000", "160320.968000", "160320.986000", "160320.989000", "160321.000000", "160321.003000", "160321.005000", "160321.008000", "160321.011000", "160321.014000", "160321.017000", "160321.020000", "160321.023000", "160400.904000", "160400.907000", "160400.910000", "160400.913000", "160400.916000", "160400.919000", "160400.922000", "160400.925000", "160400.927000", "160400.930000", "160400.933000", "160400.936000", "160400.939000", "160400.942000", "160400.945000", "160400.948000", "160400.951000", "160400.954000", "160400.957000", "160400.960000", "160400.962000", "160400.965000", "160400.968000", "160400.971000", "160400.974000", "160400.977000", "160400.980000", "160440.904000", "160440.907000", "160440.910000", "160440.913000", "160440.916000", "160440.919000", "160440.922000", "160440.925000", "160440.928000", "160440.931000", "160440.933000", "160440.936000", "160440.939000", "160440.942000", "160440.945000", "160440.948000", "160440.951000", "160440.954000", "160440.957000", "160440.960000", "160440.963000", "160440.966000", "160440.969000", "160440.971000", "160440.974000", "160440.977000", "160440.980000", "160520.904000", "160520.907000", "160520.910000", "160520.913000", "160520.916000", "160520.919000", "160520.922000", "160520.925000", "160520.928000", "160520.931000", "160520.934000", "160520.937000", "160520.940000", "160520.943000", "160520.946000", "160520.948000", "160520.951000", "160520.954000", "160520.957000", "160520.960000", "160520.963000", "160520.966000", "160520.969000", "160520.972000", "160520.975000", "160520.978000", "160600.904000", "160600.907000", "160600.910000", "160600.913000", "160600.916000", "160600.919000", "160600.922000", "160600.925000", "160600.928000", "160600.931000", "160600.934000", "160600.936000", "160600.939000", "160600.942000", "160600.945000", "160600.948000", "160600.951000", "160600.954000", "160600.957000", "160600.960000", "160600.963000", "160600.966000", "160600.969000", "160600.972000", "160600.975000", "160600.978000", "160600.980000", "160640.904000", "160640.907000", "160640.910000", "160640.913000", "160640.927000", "160640.930000", "160640.933000", "160640.936000", "160640.939000", "160640.942000", "160640.945000", "160640.948000", "160640.951000", "160640.954000", "160640.957000", "160640.960000", "160640.963000", "160640.966000", "160640.969000", "160640.972000", "160640.975000", "160640.978000", "160640.980000", "160640.983000", "160640.986000", "160640.989000", "160640.992000", "160720.904000", "160720.907000", "160720.910000", "160720.913000", "160720.916000", "160720.919000", "160720.922000", "160720.925000", "160720.927000", "160720.930000", "160720.933000", "160720.936000", "160720.939000", "160720.942000", "160720.945000", "160720.948000", "160720.951000", "160720.954000", "160720.957000", "160720.959000", "160720.962000", "160720.965000", "160720.968000", "160720.971000", "160720.974000", "160720.977000", "160720.980000", "160800.904000", "160800.907000", "160800.910000", "160800.913000", "160800.916000", "160800.919000", "160800.922000", "160800.924000", "160800.927000", "160800.930000", "160800.933000", "160800.936000", "160800.939000", "160800.942000", "160800.945000", "160800.947000", "160800.950000", "160800.965000", "160800.967000", "160800.970000", "160800.973000", "160800.976000", "160800.979000", "160800.982000", "160800.985000", "160800.988000", "160800.991000", "160840.904000", "160840.907000", "160840.910000", "160840.913000", "160840.916000", "160840.919000", "160840.922000", "160840.925000", "160840.927000", "160840.930000", "160840.933000", "160840.936000", "160840.939000", "160840.942000", "160840.945000", "160840.948000", "160840.950000", "160840.954000", "160840.956000", "160840.959000", "160840.962000", "160840.965000", "160840.968000", "160840.971000", "160840.974000", "160840.977000", "160840.980000", "160920.904000", "160920.907000", "160920.910000", "160920.913000", "160920.916000", "160920.919000", "160920.922000", "160920.925000", "160920.927000", "160920.930000", "160920.933000", "160920.936000", "160920.939000", "160920.942000", "160920.945000", "160920.948000", "160920.951000", "160920.954000", "160920.956000", "160920.959000", "160920.962000", "160920.965000", "160920.968000", "160920.971000", "160920.974000", "160920.977000", "160920.980000", "161000.904000", "161000.907000", "161000.910000", "161000.913000", "161000.916000", "161000.919000", "161000.922000", "161000.924000", "161000.927000", "161000.930000", "161000.933000", "161000.936000", "161000.939000", "161000.942000", "161000.945000", "161000.947000", "161000.950000", "161000.953000", "161000.956000", "161000.959000", "161000.962000", "161000.965000", "161000.968000", "161000.971000", "161000.973000", "161000.976000", "161040.904000", "161040.907000", "161040.910000", "161040.913000", "161040.916000", "161040.919000", "161040.922000", "161040.924000", "161040.927000", "161040.930000", "161040.933000", "161040.936000", "161040.939000", "161040.942000", "161040.945000", "161040.948000", "161040.950000", "161040.953000", "161040.956000", "161040.959000", "161040.962000", "161040.972000", "161040.975000", "161040.978000", "161040.981000", "161040.984000", "161040.987000", "161120.904000", "161120.907000", "161120.910000", "161120.913000", "161120.916000", "161120.919000", "161120.922000", "161120.925000", "161120.927000", "161120.930000", "161120.933000", "161120.936000", "161120.939000", "161120.942000", "161120.945000", "161120.948000", "161120.951000", "161120.954000", "161120.956000", "161120.959000", "161120.962000", "161120.965000", "161120.968000", "161120.971000", "161120.974000", "161120.977000", "161120.979000", "161124.612000", "161124.615000", "161124.618000"],
