{
  "AcquisitionMatrixPE": 104,
  "AcquisitionNumber": 1,
  "AcquisitionTime": "17:28:51.095000",
  "BandwidthPerPixelPhaseEncode": 17.17,
  "BaseResolution": 104,
  "BodyPartExamined": "BRAIN",
  "CoilString": "HC1-7;NC1_2",
  "ConsistencyInfo": "N4_VE11C_LATEST_20160120",
  "ConversionSoftware": "dcm2niix",
  "ConversionSoftwareVersion": "v1.0.20190902",
  "DerivedVendorReportedEchoSpacing": 0.000560011,
  "DeviceSerialNumber": "167006",
  "DwellTime": 2.1e-06,
  "EchoTime": 0.037,
  "EchoTrainLength": 104,
  "EffectiveEchoSpacing": 0.000560011,
  "FlipAngle": 52,
  "ImageComments": "Unaliased_MB4_PE3_LB",
  "ImageOrientationPatientDICOM": [0.999805, 0.00210238, 0.0196392, 0.002094, 0.977433, -0.211237],
  "ImageType": [
    "ORIGINAL",
    "PRIMARY",
    "M",
    "MB",
    "ND",
    "MOSAIC"
],
  "ImagingFrequency": 123.259,
  "InPlanePhaseEncodingDirectionDICOM": "COL",
  "InstitutionAddress": "Chemin_Queen-Mary_4565_Montreal_District_CA_H3W_1W5",
  "InstitutionName": "IUGM",
  "InstitutionalDepartmentName": "Department",
  "MRAcquisitionType": "2D",
  "MagneticFieldStrength": 3,
  "Manufacturer": "Siemens",
  "ManufacturersModelName": "Prisma_fit",
  "Modality": "MR",
  "MultibandAccelerationFactor": 4,
  "PartialFourier": 1,
  "PatientPosition": "HFS",
  "PercentPhaseFOV": 100,
  "PhaseEncodingDirection": "j",
  "PhaseEncodingSteps": 104,
  "PhaseResolution": 1,
  "PixelBandwidth": 2290,
  "ProcedureStepDescription": "language_harrypotter",
  "ProtocolName": "func_task-harrypotter_run-7",
  "PulseSequenceDetails": "%CustomerSeq%_cmrr_mbep2d_bold",
  "ReceiveCoilActiveElements": "HC1-7;NC1,2",
  "ReceiveCoilName": "HeadNeck_64",
  "ReconMatrixPE": 104,
  "RepetitionTime": 1.49,
  "SAR": 0.0327901,
  "ScanOptions": "FS",
  "ScanningSequence": "EP",
  "SequenceName": "epfid2d1_104",
  "SequenceVariant": "SK_SS",
  "SeriesDescription": "func_task-harrypotter_run-7",
  "SeriesNumber": 40,
  "ShimSetting": [645, -7237, -8740, 700, 57, -51, 88, 14],
  "SliceThickness": 2,
  "SliceTiming": [0, 0.7825, 0.0975, 0.88, 0.195, 0.98, 0.2925, 1.0775, 0.3925, 1.175, 0.49, 1.2725, 0.5875, 1.37, 0.685, 0, 0.7825, 0.0975, 0.88, 0.195, 0.98, 0.2925, 1.0775, 0.3925, 1.175, 0.49, 1.2725, 0.5875, 1.37, 0.685, 0, 0.7825, 0.0975, 0.88, 0.195, 0.98, 0.2925, 1.0775, 0.3925, 1.175, 0.49, 1.2725, 0.5875, 1.37, 0.685, 0, 0.7825, 0.0975, 0.88, 0.195, 0.98, 0.2925, 1.0775, 0.3925, 1.175, 0.49, 1.2725, 0.5875, 1.37, 0.685],
  "SoftwareVersions": "syngo_MR_E11",
  "SpacingBetweenSlices": 2,
  "StationName": "MRC35049",
  "TaskName": "harrypotter",
  "TotalReadoutTime": 0.0576811,
  "TxRefAmp": 209.376,
  "WipMemBlock": "44114c5f-af9f-463e-bd8c-8f7d0e19fd93||Sequence: R016 ve11c/master r/e634e98; Dec 19 2017 11:00:25 by eja",
  "dcmmeta_affine": [
    [-1.9996098279953003, 0.00418799789622426, 0.039280276745557785, 108.15768432617188],
    [-0.004204760305583477, 1.9548654556274414, -0.42247289419174194, -77.13629150390625],
    [0.039278484880924225, 0.4224730432033539, 1.9544752836227417, -39.92707443237305],
    [0.0, 0.0, 0.0, 1.0]
],
  "dcmmeta_reorient_transform": [
    [0.0, -1.0, 0.0, 103.0],
    [1.0, 0.0, 0.0, 0.0],
    [0.0, 0.0, 1.0, 0.0],
    [0.0, 0.0, 0.0, 1.0]
],
  "dcmmeta_shape": [104, 104, 60, 536],
  "dcmmeta_slice_dim": 2,
  "dcmmeta_version": 0.6,
  "global": {
    "const": {
      "AcquisitionMatrix": [104, 0, 0, 104],
      "AngioFlag": "N",
      "BitsAllocated": 16,
      "BitsStored": 16,
      "BodyPartExamined": "BRAIN",
      "Columns": 832,
      "EchoNumbers": 1,
      "EchoTime": 37.0,
      "EchoTrainLength": 104,
      "FlipAngle": 52.0,
      "HighBit": 15,
      "ImageOrientationPatient": [0.99980492103121, 0.00210238013294, 0.01963924335478, 0.00209399886858, 0.97743273193102, -0.2112365255315],
      "ImagePositionPatient": [-837.97146334164, -837.31641582815, 143.07047212673],
      "ImageType": [
        "ORIGINAL",
        "PRIMARY",
        "M",
        "MB",
        "ND",
        "MOSAIC"
],
      "ImagedNucleus": "1H",
      "ImagingFrequency": 123.25896,
      "InPlanePhaseEncodingDirection": "COL",
      "MRAcquisitionType": "2D",
      "MagneticFieldStrength": 3.0,
      "Manufacturer": "SIEMENS",
      "ManufacturerModelName": "Prisma_fit",
      "Modality": "MR",
      "NumberOfAverages": 1.0,
      "NumberOfPhaseEncodingSteps": 104,
      "PercentPhaseFieldOfView": 100.0,
      "PercentSampling": 100.0,
      "PerformedProcedureStepStartTime": "153849.661000",
      "PhotometricInterpretation": "MONOCHROME2",
      "PixelBandwidth": 2290.0,
      "PixelRepresentation": 0,
      "PixelSpacing": [2.0, 2.0],
      "ProtocolName": "func_task-harrypotter_run-7",
      "RepetitionTime": 1490.0,
      "Rows": 832,
      "SAR": 0.03279012923834,
      "SamplesPerPixel": 1,
      "ScanOptions": "FS",
      "ScanningSequence": "EP",
      "SequenceName": "epfid2d1_104",
      "SequenceVariant": [
        "SK",
        "SS"
],
      "SeriesDescription": "func_task-harrypotter_run-7",
      "SeriesNumber": 40,
      "SeriesTime": "173015.783000",
      "SliceLocation": -20.600012534477,
      "SliceThickness": 2.0,
      "SmallestImagePixelValue": 0,
      "SoftwareVersions": "syngo MR E11",
      "SpacingBetweenSlices": 2.000000033297,
      "SpecificCharacterSet": "ISO_IR 100",
      "StudyID": "1",
      "StudyTime": "153849.607000",
      "TransmitCoilName": "Body",
      "VariableFlipAngleFlag": "N",
      "WindowCenterWidthExplanation": "Algo1",
      "dBdt": 0.0},
    "slices": {}
  },
  "time": {
    "samples": {
      "AcquisitionNumber": [1, 2, 3, 4, 5, 6, 7, 8, 9, 10, 11, 12, 13, 14, 15, 16, 17, 18, 19, 20, 21, 22, 23, 24, 25, 26, 27, 28, 29, 30, 31, 32, 33, 34, 35, 36, 37, 38, 39, 40, 41, 42, 43, 44, 45, 46, 47, 48, 49, 50, 51, 52, 53, 54, 55, 56, 57, 58, 59, 60, 61, 62, 63, 64, 65, 66, 67, 68, 69, 70, 71, 72, 73, 74, 75, 76, 77, 78, 79, 80, 81, 82, 83, 84, 85, 86, 87, 88, 89, 90, 91, 92, 93, 94, 95, 96, 97, 98, 99, 100, 101, 102, 103, 104, 105, 106, 107, 108, 109, 110, 111, 112, 113, 114, 115, 116, 117, 118, 119, 120, 121, 122, 123, 124, 125, 126, 127, 128, 129, 130, 131, 132, 133, 134, 135, 136, 137, 138, 139, 140, 141, 142, 143, 144, 145, 146, 147, 148, 149, 150, 151, 152, 153, 154, 155, 156, 157, 158, 159, 160, 161, 162, 163, 164, 165, 166, 167, 168, 169, 170, 171, 172, 173, 174, 175, 176, 177, 178, 179, 180, 181, 182, 183, 184, 185, 186, 187, 188, 189, 190, 191, 192, 193, 194, 195, 196, 197, 198, 199, 200, 201, 202, 203, 204, 205, 206, 207, 208, 209, 210, 211, 212, 213, 214, 215, 216, 217, 218, 219, 220, 221, 222, 223, 224, 225, 226, 227, 228, 229, 230, 231, 232, 233, 234, 235, 236, 237, 238, 239, 240, 241, 242, 243, 244, 245, 246, 247, 248, 249, 250, 251, 252, 253, 254, 255, 256, 257, 258, 259, 260, 261, 262, 263, 264, 265, 266, 267, 268, 269, 270, 271, 272, 273, 274, 275, 276, 277, 278, 279, 280, 281, 282, 283, 284, 285, 286, 287, 288, 289, 290, 291, 292, 293, 294, 295, 296, 297, 298, 299, 300, 301, 302, 303, 304, 305, 306, 307, 308, 309, 310, 311, 312, 313, 314, 315, 316, 317, 318, 319, 320, 321, 322, 323, 324, 325, 326, 327, 328, 329, 330, 331, 332, 333, 334, 335, 336, 337, 338, 339, 340, 341, 342, 343, 344, 345, 346, 347, 348, 349, 350, 351, 352, 353, 354, 355, 356, 357, 358, 359, 360, 361, 362, 363, 364, 365, 366, 367, 368, 369, 370, 371, 372, 373, 374, 375, 376, 377, 378, 379, 380, 381, 382, 383, 384, 385, 386, 387, 388, 389, 390, 391, 392, 393, 394, 395, 396, 397, 398, 399, 400, 401, 402, 403, 404, 405, 406, 407, 408, 409, 410, 411, 412, 413, 414, 415, 416, 417, 418, 419, 420, 421, 422, 423, 424, 425, 426, 427, 428, 429, 430, 431, 432, 433, 434, 435, 436, 437, 438, 439, 440, 441, 442, 443, 444, 445, 446, 447, 448, 449, 450, 451, 452, 453, 454, 455, 456, 457, 458, 459, 460, 461, 462, 463, 464, 465, 466, 467, 468, 469, 470, 471, 472, 473, 474, 475, 476, 477, 478, 479, 480, 481, 482, 483, 484, 485, 486, 487, 488, 489, 490, 491, 492, 493, 494, 495, 496, 497, 498, 499, 500, 501, 502, 503, 504, 505, 506, 507, 508, 509, 510, 511, 512, 513, 514, 515, 516, 517, 518, 519, 520, 521, 522, 523, 524, 525, 526, 527, 528, 529, 530, 531, 532, 533, 534, 535, 536],
      "AcquisitionTime": ["172851.095000", "172852.585000", "172854.075000", "172855.565000", "172857.055000", "172858.545000", "172900.035000", "172901.525000", "172903.015000", "172904.505000", "172905.995000", "172907.485000", "172908.975000", "172910.465000", "172911.955000", "172913.445000", "172914.935000", "172916.425000", "172917.915000", "172919.405000", "172920.895000", "172922.385000", "172923.875000", "172925.365000", "172926.855000", "172928.345000", "172929.835000", "172931.325000", "172932.815000", "172934.305000", "172935.795000", "172937.285000", "172938.775000", "172940.265000", "172941.755000", "172943.245000", "172944.735000", "172946.225000", "172947.715000", "172949.205000", "172950.695000", "172952.185000", "172953.675000", "172955.165000", "172956.655000", "172958.145000", "172959.635000", "173001.125000", "173002.615000", "173004.105000", "173005.595000", "173007.085000", "173008.575000", "173010.065000", "173011.555000", "173013.045000", "173014.535000", "173016.025000", "173017.515000", "173019.005000", "173020.495000", "173021.985000", "173023.475000", "173024.965000", "173026.455000", "173027.945000", "173029.435000", "173030.925000", "173032.415000", "173033.905000", "173035.395000", "173036.885000", "173038.375000", "173039.865000", "173041.355000", "173042.845000", "173044.335000", "173045.825000", "173047.315000", "173048.805000", "173050.295000", "173051.785000", "173053.275000", "173054.765000", "173056.255000", "173057.745000", "173059.235000", "173100.725000", "173102.215000", "173103.705000", "173105.195000", "173106.685000", "173108.175000", "173109.665000", "173111.155000", "173112.645000", "173114.135000", "173115.625000", "173117.115000", "173118.605000", "173120.095000", "173121.585000", "173123.075000", "173124.565000", "173126.055000", "173127.545000", "173129.035000", "173130.525000", "173132.015000", "173133.505000", "173134.995000", "173136.485000", "173137.975000", "173139.465000", "173140.955000", "173142.445000", "173143.935000", "173145.425000", "173146.915000", "173148.405000", "173149.895000", "173151.385000", "173152.875000", "173154.365000", "173155.855000", "173157.345000", "173158.835000", "173200.325000", "173201.815000", "173203.305000", "173204.795000", "173206.285000", "173207.775000", "173209.265000", "173210.755000", "173212.245000", "173213.735000", "173215.225000", "173216.715000", "173218.205000", "173219.695000", "173221.185000", "173222.675000", "173224.165000", "173225.655000", "173227.145000", "173228.635000", "173230.125000", "173231.615000", "173233.105000", "173234.595000", "173236.085000", "173237.575000", "173239.065000", "173240.555000", "173242.045000", "173243.535000", "173245.025000", "173246.515000", "173248.005000", "173249.495000", "173250.985000", "173252.475000", "173253.965000", "173255.455000", "173256.945000", "173258.435000", "173259.925000", "173301.415000", "173302.905000", "173304.395000", "173305.885000", "173307.375000", "173308.865000", "173310.355000", "173311.845000", "173313.335000", "173314.825000", "173316.315000", "173317.805000", "173319.295000", "173320.785000", "173322.275000", "173323.765000", "173325.255000", "173326.745000", "173328.235000", "173329.725000", "173331.215000", "173332.705000", "173334.195000", "173335.685000", "173337.175000", "173338.665000", "173340.155000", "173341.645000", "173343.135000", "173344.625000", "173346.115000", "173347.605000", "173349.095000", "173350.585000", "173352.075000", "173353.565000", "173355.055000", "173356.545000", "173358.035000", "173359.525000", "173401.015000", "173402.505000", "173403.995000", "173405.485000", "173406.975000", "173408.465000", "173409.955000", "173411.445000", "173412.935000", "173414.425000", "173415.915000", "173417.405000", "173418.895000", "173420.385000", "173421.875000", "173423.365000", "173424.855000", "173426.345000", "173427.835000", "173429.325000", "173430.815000", "173432.305000", "173433.795000", "173435.285000", "173436.775000", "173438.265000", "173439.755000", "173441.245000", "173442.735000", "173444.225000", "173445.715000", "173447.205000", "173448.695000", "173450.185000", "173451.675000", "173453.165000", "173454.655000", "173456.145000", "173457.635000", "173459.125000", "173500.615000", "173502.105000", "173503.595000", "173505.085000", "173506.575000", "173508.065000", "173509.555000", "173511.045000", "173512.535000", "173514.025000", "173515.515000", "173517.005000", "173518.495000", "173519.985000", "173521.475000", "173522.965000", "173524.455000", "173525.945000", "173527.435000", "173528.925000", "173530.415000", "173531.905000", "173533.395000", "173534.885000", "173536.375000", "173537.865000", "173539.355000", "173540.845000", "173542.335000", "173543.825000", "173545.315000", "173546.805000", "173548.295000", "173549.785000", "173551.275000", "173552.765000", "173554.255000", "173555.745000", "173557.235000", "173558.725000", "173600.215000", "173601.705000", "173603.195000", "173604.685000", "173606.175000", "173607.665000", "173609.155000", "173610.645000", "173612.135000", "173613.625000", "173615.115000", "173616.605000", "173618.095000", "173619.585000", "173621.075000", "173622.565000", "173624.055000", "173625.545000", "173627.035000", "173628.525000", "173630.015000", "173631.505000", "173632.995000", "173634.485000", "173635.975000", "173637.465000", "173638.955000", "173640.445000", "173641.935000", "173643.425000", "173644.915000", "173646.405000", "173647.895000", "173649.385000", "173650.875000", "173652.365000", "173653.855000", "173655.345000", "173656.835000", "173658.325000", "173659.815000", "173701.305000", "173702.795000", "173704.285000", "173705.775000", "173707.265000", "173708.755000", "173710.245000", "173711.735000", "173713.225000", "173714.715000", "173716.205000", "173717.695000", "173719.185000", "173720.675000", "173722.165000", "173723.655000", "173725.145000", "173726.635000", "173728.125000", "173729.615000", "173731.105000", "173732.595000", "173734.085000", "173735.575000", "173737.065000", "173738.555000", "173740.045000", "173741.535000", "173743.025000", "173744.515000", "173746.005000", "173747.495000", "173748.985000", "173750.475000", "173751.965000", "173753.455000", "173754.945000", "173756.435000", "173757.925000", "173759.415000", "173800.905000", "173802.395000", "173803.885000", "173805.375000", "173806.865000", "173808.355000", "173809.845000", "173811.335000", "173812.825000", "173814.315000", "173815.805000", "173817.295000", "173818.785000", "173820.275000", "173821.765000", "173823.255000", "173824.745000", "173826.235000", "173827.725000", "173829.215000", "173830.705000", "173832.195000", "173833.685000", "173835.175000", "173836.665000", "173838.155000", "173839.645000", "173841.135000", "173842.625000", "173844.115000", "173845.605000", "173847.095000", "173848.585000", "173850.075000", "173851.565000", "173853.055000", "173854.545000", "173856.035000", "173857.525000", "173859.015000", "173900.505000", "173901.995000", "173903.485000", "173904.975000", "173906.465000", "173907.955000", "173909.445000", "173910.935000", "173912.425000", "173913.915000", "173915.405000", "173916.895000", "173918.385000", "173919.875000", "173921.365000", "173922.855000", "173924.345000", "173925.835000", "173927.325000", "173928.815000", "173930.305000", "173931.795000", "173933.285000", "173934.775000", "173936.265000", "173937.755000", "173939.245000", "173940.735000", "173942.225000", "173943.715000", "173945.205000", "173946.695000", "173948.185000", "173949.675000", "173951.165000", "173952.655000", "173954.145000", "173955.635000", "173957.125000", "173958.615000", "174000.105000", "174001.595000", "174003.085000", "174004.575000", "174006.065000", "174007.555000", "174009.045000", "174010.535000", "174012.025000", "174013.515000", "174015.005000", "174016.495000", "174017.985000", "174019.475000", "174020.965000", "174022.455000", "174023.945000", "174025.435000", "174026.925000", "174028.415000", "174029.905000", "174031.395000", "174032.885000", "174034.375000", "174035.865000", "174037.355000", "174038.845000", "174040.335000", "174041.825000", "174043.315000", "174044.805000", "174046.295000", "174047.785000", "174049.275000", "174050.765000", "174052.255000", "174053.745000", "174055.235000", "174056.725000", "174058.215000", "174059.705000", "174101.195000", "174102.685000", "174104.175000", "174105.665000", "174107.155000", "174108.645000", "174110.135000", "174111.625000", "174113.115000", "174114.605000", "174116.095000", "174117.585000", "174119.075000", "174120.565000", "174122.055000", "174123.545000", "174125.035000", "174126.525000", "174128.015000", "174129.505000", "174130.995000", "174132.485000", "174133.975000", "174135.465000", "174136.955000", "174138.445000", "174139.935000", "174141.425000", "174142.915000", "174144.405000", "174145.895000", "174147.385000", "174148.875000", "174150.365000", "174151.855000", "174153.345000", "174154.835000", "174156.325000", "174157.815000", "174159.305000", "174200.795000", "174202.285000", "174203.775000", "174205.265000", "174206.755000", "174208.245000"],
      "ContentTime": ["173015.786000", "173015.789000", "173015.792000", "173015.795000", "173015.797000", "173015.801000", "173015.804000", "173015.807000", "173015.810000", "173015.814000", "173015.824000", "173015.827000", "173015.851000", "173015.854000", "173015.857000", "173015.860000", "173015.862000", "173015.865000", "173015.868000", "173015.871000", "173035.755000", "173035.758000", "173035.761000", "173035.764000", "173035.767000", "173035.770000", "173035.772000", "173035.775000", "173035.778000", "173035.781000", "173035.784000", "173035.787000", "173035.789000", "173035.792000", "173035.795000", "173035.798000", "173035.801000", "173035.804000", "173035.807000", "173035.811000", "173055.755000", "173055.758000", "173055.761000", "173055.764000", "173055.775000", "173055.778000", "173055.781000", "173055.784000", "173055.787000", "173055.790000", "173055.794000", "173055.798000", "173055.802000", "173055.805000", "173055.809000", "173055.812000", "173055.814000", "173055.817000", "173055.820000", "173055.844000", "173115.755000", "173115.758000", "173115.761000", "173115.764000", "173115.767000", "173115.769000", "173115.772000", "173115.775000", "173115.778000", "173115.781000", "173115.784000", "173115.787000", "173115.790000", "173115.793000", "173115.796000", "173115.799000", "173115.802000", "173115.805000", "173115.808000", "173115.811000", "173115.813000", "173135.755000", "173135.758000", "173135.761000", "173135.764000", "173135.766000", "173135.769000", "173135.772000", "173135.775000", "173135.778000", "173135.781000", "173135.784000", "173135.787000", "173135.789000", "173135.792000", "173135.795000", "173135.798000", "173135.801000", "173135.804000", "173135.806000", "173135.809000", "173155.755000", "173155.758000", "173155.761000", "173155.764000", "173155.766000", "173155.784000", "173155.786000", "173155.789000", "173155.792000", "173155.795000", "173155.798000", "173155.801000", "173155.804000", "173155.807000", "173155.809000", "173155.812000", "173155.815000", "173155.818000", "173155.821000", "173155.824000", "173235.755000", "173235.758000", "173235.761000", "173235.764000", "173235.766000", "173235.769000", "173235.772000", "173235.775000", "173235.778000", "173235.781000", "173235.784000", "173235.787000", "173235.790000", "173235.793000", "173235.795000", "173235.798000", "173235.801000", "173235.804000", "173235.807000", "173235.810000", "173235.813000", "173235.816000", "173235.819000", "173235.822000", "173235.824000", "173235.827000", "173235.830000", "173235.833000", "173235.836000", "173315.755000", "173315.758000", "173315.761000", "173315.764000", "173315.767000", "173315.770000", "173315.772000", "173315.775000", "173315.778000", "173315.781000", "173315.784000", "173315.787000", "173315.790000", "173315.793000", "173315.795000", "173315.798000", "173315.801000", "173315.804000", "173315.807000", "173315.810000", "173315.813000", "173315.816000", "173315.819000", "173315.822000", "173315.824000", "173315.827000", "173315.830000", "173355.755000", "173355.758000", "173355.761000", "173355.764000", "173355.767000", "173355.770000", "173355.773000", "173355.776000", "173355.779000", "173355.782000", "173355.785000", "173355.788000", "173355.791000", "173355.794000", "173355.797000", "173355.799000", "173355.802000", "173355.805000", "173355.808000", "173355.811000", "173355.814000", "173355.817000", "173355.820000", "173355.823000", "173355.826000", "173355.829000", "173355.832000", "173435.755000", "173435.758000", "173435.761000", "173435.764000", "173435.775000", "173435.778000", "173435.781000", "173435.784000", "173435.786000", "173435.789000", "173435.792000", "173435.795000", "173435.798000", "173435.801000", "173435.804000", "173435.807000", "173435.810000", "173435.813000", "173435.816000", "173435.819000", "173435.821000", "173435.824000", "173435.827000", "173435.830000", "173435.833000", "173435.836000", "173435.839000", "173515.755000", "173515.758000", "173515.761000", "173515.764000", "173515.767000", "173515.770000", "173515.773000", "173515.775000", "173515.778000", "173515.781000", "173515.784000", "173515.787000", "173515.790000", "173515.793000", "173515.796000", "173515.799000", "173515.801000", "173515.804000", "173515.808000", "173515.811000", "173515.814000", "173515.817000", "173515.820000", "173515.823000", "173515.834000", "173515.837000", "173555.755000", "173555.758000", "173555.761000", "173555.764000", "173555.767000", "173555.770000", "173555.773000", "173555.775000", "173555.778000", "173555.781000", "173555.784000", "173555.787000", "173555.790000", "173555.793000", "173555.796000", "173555.799000", "173555.801000", "173555.804000", "173555.807000", "173555.810000", "173555.813000", "173555.816000", "173555.819000", "173555.822000", "173555.825000", "173555.828000", "173555.830000", "173635.755000", "173635.758000", "173635.761000", "173635.764000", "173635.767000", "173635.770000", "173635.773000", "173635.776000", "173635.779000", "173635.782000", "173635.785000", "173635.788000", "173635.791000", "173635.794000", "173635.797000", "173635.799000", "173635.802000", "173635.805000", "173635.808000", "173635.811000", "173635.814000", "173635.817000", "173635.820000", "173635.823000", "173635.841000", "173635.844000", "173635.847000", "173715.755000", "173715.758000", "173715.761000", "173715.764000", "173715.767000", "173715.770000", "173715.773000", "173715.776000", "173715.779000", "173715.781000", "173715.784000", "173715.787000", "173715.790000", "173715.793000", "173715.796000", "173715.799000", "173715.802000", "173715.805000", "173715.808000", "173715.810000", "173715.813000", "173715.816000", "173715.819000", "173715.822000", "173715.825000", "173715.828000", "173715.831000", "173755.755000", "173755.758000", "173755.761000", "173755.764000", "173755.767000", "173755.770000", "173755.773000", "173755.775000", "173755.778000", "173755.781000", "173755.784000", "173755.787000", "173755.790000", "173755.793000", "173755.796000", "173755.799000", "173755.801000", "173755.804000", "173755.807000", "173755.810000", "173755.813000", "173755.816000", "173755.819000", "173755.822000", "173755.825000", "173755.828000", "173755.830000", "173835.755000", "173835.758000", "173835.761000", "173835.764000", "173835.767000", "173835.770000", "173835.773000", "173835.775000", "173835.778000", "173835.781000", "173835.784000", "173835.787000", "173835.790000", "173835.793000", "173835.796000", "173835.799000", "173835.801000", "173835.804000", "173835.807000", "173835.810000", "173835.813000", "173835.816000", "173835.819000", "173835.822000", "173835.825000", "173835.828000", "173835.830000", "173915.755000", "173915.758000", "173915.761000", "173915.764000", "173915.767000", "173915.770000", "173915.772000", "173915.775000", "173915.778000", "173915.781000", "173915.784000", "173915.787000", "173915.790000", "173915.793000", "173915.796000", "173915.798000", "173915.801000", "173915.804000", "173915.807000", "173915.810000", "173915.813000", "173915.816000", "173915.819000", "173915.822000", "173915.825000", "173915.827000", "173915.830000", "173955.755000", "173955.758000", "173955.761000", "173955.764000", "173955.767000", "173955.770000", "173955.773000", "173955.775000", "173955.778000", "173955.781000", "173955.784000", "173955.787000", "173955.790000", "173955.794000", "173955.797000", "173955.799000", "173955.802000", "173955.805000", "173955.808000", "173955.811000", "173955.814000", "173955.817000", "173955.824000", "173955.827000", "173955.830000", "173955.833000", "174035.755000", "174035.758000", "174035.761000", "174035.764000", "174035.767000", "174035.769000", "174035.772000", "174035.775000", "174035.778000", "174035.781000", "174035.784000", "174035.787000", "174035.790000", "174035.793000", "174035.796000", "174035.799000", "174035.802000", "174035.804000", "174035.807000", "174035.810000", "174035.813000", "174035.816000", "174035.819000", "174035.822000", "174035.825000", "174035.828000", "174035.830000", "174115.755000", "174115.758000", "174115.761000", "174115.764000", "174115.767000", "174115.770000", "174115.773000", "174115.776000", "174115.779000", "174115.782000", "174115.785000", "174115.788000", "174115.791000", "174115.794000", "174115.797000", "174115.799000", "174115.802000", "174115.805000", "174115.808000", "174115.811000", "174115.814000", "174115.817000", "174115.820000", "174115.823000", "174115.840000", "174115.843000", "174115.846000", "174155.755000", "174155.758000", "174155.761000", "174155.764000", "174155.767000", "174155.770000", "174155.773000", "174155.776000", "174155.779000", "174155.781000", "174155.784000", "174155.787000", "174155.790000", "174155.793000", "174155.796000", "174155.799000", "174155.802000", "174155.805000", "174155.808000", "174155.810000", "174155.813000", "174155.816000", "174155.819000", "174155.822000", "174155.825000", "174155.828000", "174155.831000", "174210.065000", "174210.068000", "174210.071000", "174210.074000", "174210.077000", "174210.079000", "174210.082000", "174210.085000", "174210.088000", "174210.091000"],
