{
  "AcquisitionMatrixPE": 104,
  "AcquisitionNumber": 1,
  "AcquisitionTime": "16:12:13.982500",
  "BandwidthPerPixelPhaseEncode": 17.17,
  "BaseResolution": 104,
  "BodyPartExamined": "BRAIN",
  "CoilString": "HC1-7;NC1_2",
  "ConsistencyInfo": "N4_VE11C_LATEST_20160120",
  "ConversionSoftware": "dcm2niix",
  "ConversionSoftwareVersion": "v1.0.20190902",
  "DerivedVendorReportedEchoSpacing": 0.000560011,
  "DeviceSerialNumber": "167006",
  "DwellTime": 2.1e-06,
  "EchoTime": 0.037,
  "EchoTrainLength": 104,
  "EffectiveEchoSpacing": 0.000560011,
  "FlipAngle": 52,
  "ImageComments": "Unaliased_MB4_PE3_LB",
  "ImageOrientationPatientDICOM": [0.999707, 0.00910041, 0.0224397, -0.00296621, 0.965737, -0.259507],
  "ImageType": [
    "ORIGINAL",
    "PRIMARY",
    "M",
    "MB",
    "ND",
    "MOSAIC"
],
  "ImagingFrequency": 123.259,
  "InPlanePhaseEncodingDirectionDICOM": "COL",
  "InstitutionAddress": "Chemin_Queen-Mary_4565_Montreal_District_CA_H3W_1W5",
  "InstitutionName": "IUGM",
  "InstitutionalDepartmentName": "Department",
  "MRAcquisitionType": "2D",
  "MagneticFieldStrength": 3,
  "Manufacturer": "Siemens",
  "ManufacturersModelName": "Prisma_fit",
  "Modality": "MR",
  "MultibandAccelerationFactor": 4,
  "PartialFourier": 1,
  "PatientPosition": "HFS",
  "PercentPhaseFOV": 100,
  "PhaseEncodingDirection": "j",
  "PhaseEncodingSteps": 104,
  "PhaseResolution": 1,
  "PixelBandwidth": 2290,
  "ProcedureStepDescription": "language_harrypotter",
  "ProtocolName": "func_task-harrypotter_run-2",
  "PulseSequenceDetails": "%CustomerSeq%_cmrr_mbep2d_bold",
  "ReceiveCoilActiveElements": "HC1-7;NC1,2",
  "ReceiveCoilName": "HeadNeck_64",
  "ReconMatrixPE": 104,
  "RepetitionTime": 1.49,
  "SAR": 0.0317259,
  "ScanOptions": "FS",
  "ScanningSequence": "EP",
  "SequenceName": "epfid2d1_104",
  "SequenceVariant": "SK_SS",
  "SeriesDescription": "func_task-harrypotter_run-2",
  "SeriesNumber": 16,
  "ShimSetting": [648, -7219, -8735, 676, 56, 2, 76, 10],
  "SliceThickness": 2,
  "SliceTiming": [0, 0.7825, 0.0975, 0.8825, 0.195, 0.98, 0.2925, 1.0775, 0.3925, 1.175, 0.49, 1.2725, 0.5875, 1.3725, 0.685, 0, 0.7825, 0.0975, 0.8825, 0.195, 0.98, 0.2925, 1.0775, 0.3925, 1.175, 0.49, 1.2725, 0.5875, 1.3725, 0.685, 0, 0.7825, 0.0975, 0.8825, 0.195, 0.98, 0.2925, 1.0775, 0.3925, 1.175, 0.49, 1.2725, 0.5875, 1.3725, 0.685, 0, 0.7825, 0.0975, 0.8825, 0.195, 0.98, 0.2925, 1.0775, 0.3925, 1.175, 0.49, 1.2725, 0.5875, 1.3725, 0.685],
  "SoftwareVersions": "syngo_MR_E11",
  "SpacingBetweenSlices": 2,
  "StationName": "MRC35049",
  "TaskName": "harrypotter",
  "TotalReadoutTime": 0.0576811,
  "TxRefAmp": 207.814,
  "WipMemBlock": "09d43a5c-d67b-49a2-b1f8-d458dac6f711||Sequence: R016 ve11c/master r/e634e98; Dec 19 2017 11:00:25 by eja",
  "dcmmeta_affine": [
    [-1.9994136095046997, -0.0059324149042367935, 0.048064980655908585, 108.04364776611328],
    [-0.0182008258998394, 1.9314733743667603, -0.518728494644165, -73.95833587646484],
    [0.04487946256995201, 0.5190138220787048, 1.930961012840271, -44.32586669921875],
    [0.0, 0.0, 0.0, 1.0]
],
  "dcmmeta_reorient_transform": [
    [0.0, -1.0, 0.0, 103.0],
    [1.0, 0.0, 0.0, 0.0],
    [0.0, 0.0, 1.0, 0.0],
    [0.0, 0.0, 0.0, 1.0]
],
  "dcmmeta_shape": [104, 104, 60, 471],
  "dcmmeta_slice_dim": 2,
  "dcmmeta_version": 0.6,
  "global": {
    "const": {
      "AcquisitionMatrix": [104, 0, 0, 104],
      "AngioFlag": "N",
      "BitsAllocated": 16,
      "BitsStored": 16,
      "BodyPartExamined": "BRAIN",
      "Columns": 832,
      "EchoNumbers": 1,
      "EchoTime": 37.0,
      "EchoTrainLength": 104,
      "FlipAngle": 52.0,
      "HighBit": 15,
      "ImageOrientationPatient": [0.99970677749351, 0.00910041275092, 0.02243973086548, -0.0029662073796, 0.96573669886523, -0.2595068979404],
      "ImagePositionPatient": [-833.05974051448, -834.66483964235, 181.7174506791],
      "ImageType": [
        "ORIGINAL",
        "PRIMARY",
        "M",
        "MB",
        "ND",
        "MOSAIC"
],
      "ImagedNucleus": "1H",
      "ImagingFrequency": 123.258947,
      "InPlanePhaseEncodingDirection": "COL",
      "MRAcquisitionType": "2D",
      "MagneticFieldStrength": 3.0,
      "Manufacturer": "SIEMENS",
      "ManufacturerModelName": "Prisma_fit",
      "Modality": "MR",
      "NumberOfAverages": 1.0,
      "NumberOfPhaseEncodingSteps": 104,
      "PercentPhaseFieldOfView": 100.0,
      "PercentSampling": 100.0,
      "PerformedProcedureStepStartTime": "153849.661000",
      "PhotometricInterpretation": "MONOCHROME2",
      "PixelBandwidth": 2290.0,
      "PixelRepresentation": 0,
      "PixelSpacing": [2.0, 2.0],
      "ProtocolName": "func_task-harrypotter_run-2",
      "RepetitionTime": 1490.0,
      "Rows": 832,
      "SAR": 0.03172588727164,
      "SamplesPerPixel": 1,
      "ScanOptions": "FS",
      "ScanningSequence": "EP",
      "SequenceName": "epfid2d1_104",
      "SequenceVariant": [
        "SK",
        "SS"
],
      "SeriesDescription": "func_task-harrypotter_run-2",
      "SeriesNumber": 16,
      "SeriesTime": "161338.773000",
      "SliceLocation": -21.017055618012,
      "SliceThickness": 2.0,
      "SmallestImagePixelValue": 0,
      "SoftwareVersions": "syngo MR E11",
      "SpacingBetweenSlices": 1.9999999630239,
      "SpecificCharacterSet": "ISO_IR 100",
      "StudyID": "1",
      "StudyTime": "153849.607000",
      "TransmitCoilName": "Body",
      "VariableFlipAngleFlag": "N",
      "WindowCenterWidthExplanation": "Algo1",
      "dBdt": 0.0},
    "slices": {}
  },
  "time": {
    "samples": {
      "AcquisitionNumber": [1, 2, 3, 4, 5, 6, 7, 8, 9, 10, 11, 12, 13, 14, 15, 16, 17, 18, 19, 20, 21, 22, 23, 24, 25, 26, 27, 28, 29, 30, 31, 32, 33, 34, 35, 36, 37, 38, 39, 40, 41, 42, 43, 44, 45, 46, 47, 48, 49, 50, 51, 52, 53, 54, 55, 56, 57, 58, 59, 60, 61, 62, 63, 64, 65, 66, 67, 68, 69, 70, 71, 72, 73, 74, 75, 76, 77, 78, 79, 80, 81, 82, 83, 84, 85, 86, 87, 88, 89, 90, 91, 92, 93, 94, 95, 96, 97, 98, 99, 100, 101, 102, 103, 104, 105, 106, 107, 108, 109, 110, 111, 112, 113, 114, 115, 116, 117, 118, 119, 120, 121, 122, 123, 124, 125, 126, 127, 128, 129, 130, 131, 132, 133, 134, 135, 136, 137, 138, 139, 140, 141, 142, 143, 144, 145, 146, 147, 148, 149, 150, 151, 152, 153, 154, 155, 156, 157, 158, 159, 160, 161, 162, 163, 164, 165, 166, 167, 168, 169, 170, 171, 172, 173, 174, 175, 176, 177, 178, 179, 180, 181, 182, 183, 184, 185, 186, 187, 188, 189, 190, 191, 192, 193, 194, 195, 196, 197, 198, 199, 200, 201, 202, 203, 204, 205, 206, 207, 208, 209, 210, 211, 212, 213, 214, 215, 216, 217, 218, 219, 220, 221, 222, 223, 224, 225, 226, 227, 228, 229, 230, 231, 232, 233, 234, 235, 236, 237, 238, 239, 240, 241, 242, 243, 244, 245, 246, 247, 248, 249, 250, 251, 252, 253, 254, 255, 256, 257, 258, 259, 260, 261, 262, 263, 264, 265, 266, 267, 268, 269, 270, 271, 272, 273, 274, 275, 276, 277, 278, 279, 280, 281, 282, 283, 284, 285, 286, 287, 288, 289, 290, 291, 292, 293, 294, 295, 296, 297, 298, 299, 300, 301, 302, 303, 304, 305, 306, 307, 308, 309, 310, 311, 312, 313, 314, 315, 316, 317, 318, 319, 320, 321, 322, 323, 324, 325, 326, 327, 328, 329, 330, 331, 332, 333, 334, 335, 336, 337, 338, 339, 340, 341, 342, 343, 344, 345, 346, 347, 348, 349, 350, 351, 352, 353, 354, 355, 356, 357, 358, 359, 360, 361, 362, 363, 364, 365, 366, 367, 368, 369, 370, 371, 372, 373, 374, 375, 376, 377, 378, 379, 380, 381, 382, 383, 384, 385, 386, 387, 388, 389, 390, 391, 392, 393, 394, 395, 396, 397, 398, 399, 400, 401, 402, 403, 404, 405, 406, 407, 408, 409, 410, 411, 412, 413, 414, 415, 416, 417, 418, 419, 420, 421, 422, 423, 424, 425, 426, 427, 428, 429, 430, 431, 432, 433, 434, 435, 436, 437, 438, 439, 440, 441, 442, 443, 444, 445, 446, 447, 448, 449, 450, 451, 452, 453, 454, 455, 456, 457, 458, 459, 460, 461, 462, 463, 464, 465, 466, 467, 468, 469, 470, 471],
      "AcquisitionTime": ["161213.982500", "161215.472500", "161216.962500", "161218.452500", "161219.942500", "161221.432500", "161222.922500", "161224.412500", "161225.902500", "161227.392500", "161228.882500", "161230.372500", "161231.862500", "161233.352500", "161234.842500", "161236.332500", "161237.822500", "161239.312500", "161240.802500", "161242.292500", "161243.782500", "161245.272500", "161246.762500", "161248.252500", "161249.742500", "161251.232500", "161252.722500", "161254.212500", "161255.702500", "161257.192500", "161258.682500", "161300.172500", "161301.662500", "161303.152500", "161304.642500", "161306.132500", "161307.622500", "161309.112500", "161310.602500", "161312.092500", "161313.582500", "161315.072500", "161316.562500", "161318.052500", "161319.542500", "161321.032500", "161322.522500", "161324.012500", "161325.502500", "161326.992500", "161328.482500", "161329.972500", "161331.462500", "161332.952500", "161334.442500", "161335.932500", "161337.422500", "161338.912500", "161340.402500", "161341.892500", "161343.382500", "161344.872500", "161346.362500", "161347.852500", "161349.342500", "161350.832500", "161352.322500", "161353.812500", "161355.302500", "161356.792500", "161358.282500", "161359.772500", "161401.262500", "161402.752500", "161404.242500", "161405.732500", "161407.222500", "161408.712500", "161410.202500", "161411.692500", "161413.182500", "161414.672500", "161416.162500", "161417.652500", "161419.142500", "161420.632500", "161422.122500", "161423.612500", "161425.102500", "161426.592500", "161428.082500", "161429.572500", "161431.062500", "161432.552500", "161434.042500", "161435.532500", "161437.022500", "161438.512500", "161440.002500", "161441.492500", "161442.982500", "161444.472500", "161445.962500", "161447.452500", "161448.942500", "161450.432500", "161451.922500", "161453.412500", "161454.902500", "161456.392500", "161457.882500", "161459.372500", "161500.862500", "161502.352500", "161503.842500", "161505.332500", "161506.822500", "161508.312500", "161509.802500", "161511.292500", "161512.782500", "161514.272500", "161515.762500", "161517.252500", "161518.742500", "161520.232500", "161521.722500", "161523.212500", "161524.702500", "161526.192500", "161527.682500", "161529.172500", "161530.662500", "161532.152500", "161533.642500", "161535.132500", "161536.622500", "161538.112500", "161539.602500", "161541.092500", "161542.582500", "161544.072500", "161545.562500", "161547.052500", "161548.542500", "161550.032500", "161551.522500", "161553.012500", "161554.502500", "161555.992500", "161557.482500", "161558.972500", "161600.462500", "161601.952500", "161603.442500", "161604.932500", "161606.422500", "161607.912500", "161609.402500", "161610.892500", "161612.382500", "161613.872500", "161615.362500", "161616.852500", "161618.342500", "161619.832500", "161621.322500", "161622.812500", "161624.302500", "161625.792500", "161627.282500", "161628.772500", "161630.262500", "161631.752500", "161633.242500", "161634.732500", "161636.222500", "161637.712500", "161639.202500", "161640.692500", "161642.182500", "161643.672500", "161645.162500", "161646.652500", "161648.142500", "161649.632500", "161651.122500", "161652.612500", "161654.102500", "161655.592500", "161657.082500", "161658.572500", "161700.062500", "161701.552500", "161703.042500", "161704.532500", "161706.022500", "161707.512500", "161709.002500", "161710.492500", "161711.982500", "161713.472500", "161714.962500", "161716.452500", "161717.942500", "161719.432500", "161720.922500", "161722.412500", "161723.902500", "161725.392500", "161726.882500", "161728.372500", "161729.862500", "161731.352500", "161732.842500", "161734.332500", "161735.822500", "161737.312500", "161738.802500", "161740.292500", "161741.782500", "161743.272500", "161744.762500", "161746.252500", "161747.742500", "161749.232500", "161750.722500", "161752.212500", "161753.702500", "161755.192500", "161756.682500", "161758.172500", "161759.662500", "161801.152500", "161802.642500", "161804.132500", "161805.622500", "161807.112500", "161808.602500", "161810.092500", "161811.582500", "161813.072500", "161814.562500", "161816.052500", "161817.542500", "161819.032500", "161820.522500", "161822.012500", "161823.502500", "161824.992500", "161826.482500", "161827.972500", "161829.462500", "161830.952500", "161832.442500", "161833.932500", "161835.422500", "161836.912500", "161838.402500", "161839.892500", "161841.382500", "161842.872500", "161844.362500", "161845.852500", "161847.342500", "161848.832500", "161850.322500", "161851.812500", "161853.302500", "161854.792500", "161856.282500", "161857.772500", "161859.262500", "161900.752500", "161902.242500", "161903.732500", "161905.222500", "161906.712500", "161908.202500", "161909.692500", "161911.182500", "161912.672500", "161914.162500", "161915.652500", "161917.142500", "161918.632500", "161920.122500", "161921.612500", "161923.102500", "161924.592500", "161926.082500", "161927.572500", "161929.062500", "161930.552500", "161932.042500", "161933.532500", "161935.022500", "161936.512500", "161938.002500", "161939.492500", "161940.982500", "161942.472500", "161943.962500", "161945.452500", "161946.942500", "161948.432500", "161949.922500", "161951.412500", "161952.902500", "161954.392500", "161955.882500", "161957.372500", "161958.862500", "162000.352500", "162001.842500", "162003.332500", "162004.822500", "162006.312500", "162007.802500", "162009.292500", "162010.782500", "162012.272500", "162013.762500", "162015.252500", "162016.742500", "162018.232500", "162019.722500", "162021.212500", "162022.702500", "162024.192500", "162025.682500", "162027.172500", "162028.662500", "162030.152500", "162031.642500", "162033.132500", "162034.622500", "162036.112500", "162037.602500", "162039.092500", "162040.582500", "162042.072500", "162043.562500", "162045.052500", "162046.542500", "162048.032500", "162049.522500", "162051.012500", "162052.502500", "162053.992500", "162055.482500", "162056.972500", "162058.462500", "162059.952500", "162101.442500", "162102.932500", "162104.422500", "162105.912500", "162107.402500", "162108.892500", "162110.382500", "162111.872500", "162113.362500", "162114.852500", "162116.342500", "162117.832500", "162119.322500", "162120.812500", "162122.302500", "162123.792500", "162125.282500", "162126.772500", "162128.262500", "162129.752500", "162131.242500", "162132.732500", "162134.222500", "162135.712500", "162137.202500", "162138.692500", "162140.182500", "162141.672500", "162143.162500", "162144.652500", "162146.142500", "162147.632500", "162149.122500", "162150.612500", "162152.102500", "162153.592500", "162155.082500", "162156.572500", "162158.062500", "162159.552500", "162201.042500", "162202.532500", "162204.022500", "162205.512500", "162207.002500", "162208.492500", "162209.982500", "162211.472500", "162212.962500", "162214.452500", "162215.942500", "162217.432500", "162218.922500", "162220.412500", "162221.902500", "162223.392500", "162224.882500", "162226.372500", "162227.862500", "162229.352500", "162230.842500", "162232.332500", "162233.822500", "162235.312500", "162236.802500", "162238.292500", "162239.782500", "162241.272500", "162242.762500", "162244.252500", "162245.742500", "162247.232500", "162248.722500", "162250.212500", "162251.702500", "162253.192500", "162254.682500", "162256.172500", "162257.662500", "162259.152500", "162300.642500", "162302.132500", "162303.622500", "162305.112500", "162306.602500", "162308.092500", "162309.582500", "162311.072500", "162312.562500", "162314.052500", "162315.542500", "162317.032500", "162318.522500", "162320.012500", "162321.502500", "162322.992500", "162324.482500", "162325.972500", "162327.462500", "162328.952500", "162330.442500", "162331.932500", "162333.422500", "162334.912500", "162336.402500", "162337.892500", "162339.382500", "162340.872500", "162342.362500", "162343.852500", "162345.342500", "162346.832500", "162348.322500", "162349.812500", "162351.302500", "162352.792500", "162354.282500"],
      "ContentTime": ["161338.776000", "161338.779000", "161338.782000", "161338.785000", "161338.788000", "161338.790000", "161338.793000", "161338.796000", "161338.799000", "161338.802000", "161338.805000", "161338.808000", "161338.811000", "161338.813000", "161338.816000", "161338.819000", "161338.822000", "161338.825000", "161338.828000", "161338.831000", "161338.833000", "161338.836000", "161338.839000", "161338.842000", "161338.845000", "161338.848000", "161338.851000", "161338.853000", "161338.856000", "161338.859000", "161338.862000", "161358.749000", "161358.752000", "161358.755000", "161358.758000", "161358.760000", "161358.763000", "161358.766000", "161358.769000", "161358.781000", "161358.784000", "161358.786000", "161358.789000", "161358.792000", "161358.795000", "161358.798000", "161358.801000", "161358.804000", "161358.807000", "161358.809000", "161358.812000", "161418.749000", "161418.752000", "161418.755000", "161418.757000", "161418.760000", "161418.763000", "161418.766000", "161418.769000", "161418.772000", "161418.775000", "161418.778000", "161418.781000", "161418.783000", "161418.786000", "161418.789000", "161418.792000", "161418.795000", "161418.798000", "161418.801000", "161418.803000", "161438.750000", "161438.753000", "161438.756000", "161438.759000", "161438.761000", "161438.764000", "161438.767000", "161438.770000", "161438.773000", "161438.782000", "161438.785000", "161438.788000", "161438.790000", "161438.793000", "161438.796000", "161438.799000", "161438.802000", "161438.805000", "161438.808000", "161438.811000", "161518.750000", "161518.753000", "161518.756000", "161518.759000", "161518.765000", "161518.768000", "161518.771000", "161518.774000", "161518.777000", "161518.780000", "161518.783000", "161518.785000", "161518.788000", "161518.791000", "161518.794000", "161518.797000", "161518.800000", "161518.803000", "161518.806000", "161518.809000", "161518.811000", "161518.814000", "161518.817000", "161518.820000", "161518.823000", "161518.825000", "161518.828000", "161518.831000", "161518.834000", "161518.837000", "161518.840000", "161518.843000", "161558.749000", "161558.752000", "161558.755000", "161558.758000", "161558.760000", "161558.763000", "161558.773000", "161558.776000", "161558.779000", "161558.782000", "161558.785000", "161558.788000", "161558.791000", "161558.794000", "161558.796000", "161558.799000", "161558.802000", "161558.805000", "161558.808000", "161558.811000", "161558.814000", "161558.817000", "161558.820000", "161558.822000", "161558.825000", "161558.828000", "161558.831000", "161638.749000", "161638.752000", "161638.755000", "161638.758000", "161638.761000", "161638.764000", "161638.767000", "161638.770000", "161638.772000", "161638.775000", "161638.778000", "161638.781000", "161638.784000", "161638.787000", "161638.790000", "161638.793000", "161638.796000", "161638.799000", "161638.801000", "161638.804000", "161638.812000", "161638.814000", "161638.817000", "161638.820000", "161638.823000", "161638.826000", "161638.829000", "161718.750000", "161718.753000", "161718.756000", "161718.759000", "161718.762000", "161718.765000", "161718.768000", "161718.771000", "161718.774000", "161718.777000", "161718.780000", "161718.783000", "161718.785000", "161718.788000", "161718.791000", "161718.794000", "161718.797000", "161718.800000", "161718.803000", "161718.806000", "161718.809000", "161718.811000", "161718.814000", "161718.817000", "161718.820000", "161718.823000", "161758.750000", "161758.753000", "161758.756000", "161758.759000", "161758.762000", "161758.765000", "161758.768000", "161758.770000", "161758.773000", "161758.776000", "161758.779000", "161758.782000", "161758.785000", "161758.788000", "161758.791000", "161758.794000", "161758.796000", "161758.799000", "161758.802000", "161758.805000", "161758.808000", "161758.811000", "161758.814000", "161758.817000", "161758.836000", "161758.839000", "161758.842000", "161838.749000", "161838.752000", "161838.755000", "161838.758000", "161838.761000", "161838.764000", "161838.767000", "161838.770000", "161838.772000", "161838.776000", "161838.778000", "161838.781000", "161838.784000", "161838.787000", "161838.790000", "161838.793000", "161838.796000", "161838.799000", "161838.801000", "161838.804000", "161838.807000", "161838.810000", "161838.813000", "161838.824000", "161838.827000", "161838.830000", "161838.833000", "161918.750000", "161918.753000", "161918.756000", "161918.759000", "161918.762000", "161918.765000", "161918.767000", "161918.770000", "161918.773000", "161918.776000", "161918.779000", "161918.782000", "161918.785000", "161918.788000", "161918.790000", "161918.793000", "161918.796000", "161918.799000", "161918.802000", "161918.805000", "161918.808000", "161918.811000", "161918.813000", "161918.816000", "161918.819000", "161918.822000", "161918.825000", "161958.750000", "161958.753000", "161958.756000", "161958.759000", "161958.762000", "161958.765000", "161958.767000", "161958.770000", "161958.773000", "161958.776000", "161958.779000", "161958.782000", "161958.785000", "161958.788000", "161958.791000", "161958.793000", "161958.796000", "161958.799000", "161958.802000", "161958.805000", "161958.808000", "161958.811000", "161958.814000", "161958.817000", "161958.820000", "161958.822000", "161958.825000", "162038.749000", "162038.752000", "162038.755000", "162038.758000", "162038.761000", "162038.763000", "162038.766000", "162038.769000", "162038.772000", "162038.775000", "162038.778000", "162038.781000", "162038.784000", "162038.786000", "162038.789000", "162038.792000", "162038.795000", "162038.798000", "162038.801000", "162038.804000", "162038.807000", "162038.809000", "162038.812000", "162038.815000", "162038.818000", "162038.821000", "162038.824000", "162118.749000", "162118.752000", "162118.755000", "162118.758000", "162118.761000", "162118.764000", "162118.766000", "162118.769000", "162118.772000", "162118.783000", "162118.786000", "162118.789000", "162118.792000", "162118.795000", "162118.798000", "162118.801000", "162118.804000", "162118.807000", "162118.810000", "162118.813000", "162118.816000", "162118.819000", "162118.822000", "162118.824000", "162118.827000", "162118.830000", "162118.833000", "162158.750000", "162158.753000", "162158.756000", "162158.759000", "162158.762000", "162158.764000", "162158.767000", "162158.770000", "162158.773000", "162158.776000", "162158.779000", "162158.782000", "162158.785000", "162158.788000", "162158.791000", "162158.793000", "162158.796000", "162158.799000", "162158.802000", "162158.805000", "162158.808000", "162158.811000", "162158.813000", "162158.816000", "162158.819000", "162158.822000", "162238.750000", "162238.753000", "162238.756000", "162238.759000", "162238.762000", "162238.765000", "162238.767000", "162238.770000", "162238.773000", "162238.776000", "162238.779000", "162238.782000", "162238.785000", "162238.788000", "162238.791000", "162238.794000", "162238.796000", "162238.799000", "162238.802000", "162238.805000", "162238.808000", "162238.811000", "162238.814000", "162238.816000", "162238.830000", "162238.833000", "162238.836000", "162318.749000", "162318.752000", "162318.755000", "162318.758000", "162318.761000", "162318.764000", "162318.767000", "162318.769000", "162318.772000", "162318.775000", "162318.778000", "162318.781000", "162318.784000", "162318.787000", "162318.790000", "162318.793000", "162318.796000", "162318.798000", "162318.801000", "162318.804000", "162318.807000", "162318.810000", "162318.813000", "162318.816000", "162318.818000", "162318.821000", "162318.824000", "162356.746000", "162356.749000", "162356.752000", "162356.755000", "162356.758000", "162356.762000", "162356.765000", "162356.768000", "162356.771000", "162356.774000", "162356.777000", "162356.780000", "162356.783000", "162356.786000", "162356.789000", "162356.792000", "162356.795000", "162356.798000", "162356.807000", "162356.809000", "162356.812000", "162356.815000", "162356.818000", "162356.821000", "162356.824000", "162356.827000"],
