{
  "AcquisitionMatrixPE": 104,
  "AcquisitionNumber": 1,
  "AcquisitionTime": "16:24:21.162500",
  "BandwidthPerPixelPhaseEncode": 17.17,
  "BaseResolution": 104,
  "BodyPartExamined": "BRAIN",
  "CoilString": "HC1-7;NC1_2",
  "ConsistencyInfo": "N4_VE11C_LATEST_20160120",
  "ConversionSoftware": "dcm2niix",
  "ConversionSoftwareVersion": "v1.0.20190902",
  "DerivedVendorReportedEchoSpacing": 0.000560011,
  "DeviceSerialNumber": "167006",
  "DwellTime": 2.1e-06,
  "EchoTime": 0.037,
  "EchoTrainLength": 104,
  "EffectiveEchoSpacing": 0.000560011,
  "FlipAngle": 52,
  "ImageComments": "Unaliased_MB4_PE3_LB",
  "ImageOrientationPatientDICOM": [0.999707, 0.00910041, 0.0224397, -0.00296621, 0.965737, -0.259507],
  "ImageType": [
    "ORIGINAL",
    "PRIMARY",
    "M",
    "MB",
    "ND",
    "MOSAIC"
],
  "ImagingFrequency": 123.259,
  "InPlanePhaseEncodingDirectionDICOM": "COL",
  "InstitutionAddress": "Chemin_Queen-Mary_4565_Montreal_District_CA_H3W_1W5",
  "InstitutionName": "IUGM",
  "InstitutionalDepartmentName": "Department",
  "MRAcquisitionType": "2D",
  "MagneticFieldStrength": 3,
  "Manufacturer": "Siemens",
  "ManufacturersModelName": "Prisma_fit",
  "Modality": "MR",
  "MultibandAccelerationFactor": 4,
  "PartialFourier": 1,
  "PatientPosition": "HFS",
  "PercentPhaseFOV": 100,
  "PhaseEncodingDirection": "j",
  "PhaseEncodingSteps": 104,
  "PhaseResolution": 1,
  "PixelBandwidth": 2290,
  "ProcedureStepDescription": "language_harrypotter",
  "ProtocolName": "func_task-harrypotter_run-3",
  "PulseSequenceDetails": "%CustomerSeq%_cmrr_mbep2d_bold",
  "ReceiveCoilActiveElements": "HC1-7;NC1,2",
  "ReceiveCoilName": "HeadNeck_64",
  "ReconMatrixPE": 104,
  "RepetitionTime": 1.49,
  "SAR": 0.0316911,
  "ScanOptions": "FS",
  "ScanningSequence": "EP",
  "SequenceName": "epfid2d1_104",
  "SequenceVariant": "SK_SS",
  "SeriesDescription": "func_task-harrypotter_run-3",
  "SeriesNumber": 18,
  "ShimSetting": [648, -7219, -8735, 676, 56, 2, 76, 10],
  "SliceThickness": 2,
  "SliceTiming": [0, 0.785, 0.0975, 0.8825, 0.1975, 0.98, 0.295, 1.0775, 0.3925, 1.1775, 0.49, 1.275, 0.5875, 1.3725, 0.6875, 0, 0.785, 0.0975, 0.8825, 0.1975, 0.98, 0.295, 1.0775, 0.3925, 1.1775, 0.49, 1.275, 0.5875, 1.3725, 0.6875, 0, 0.785, 0.0975, 0.8825, 0.1975, 0.98, 0.295, 1.0775, 0.3925, 1.1775, 0.49, 1.275, 0.5875, 1.3725, 0.6875, 0, 0.785, 0.0975, 0.8825, 0.1975, 0.98, 0.295, 1.0775, 0.3925, 1.1775, 0.49, 1.275, 0.5875, 1.3725, 0.6875],
  "SoftwareVersions": "syngo_MR_E11",
  "SpacingBetweenSlices": 2,
  "StationName": "MRC35049",
  "TaskName": "harrypotter",
  "TotalReadoutTime": 0.0576811,
  "TxRefAmp": 207.814,
  "WipMemBlock": "33d8817f-04a3-4ee8-ba20-e5b1bb54b1ac||Sequence: R016 ve11c/master r/e634e98; Dec 19 2017 11:00:25 by eja",
  "dcmmeta_affine": [
    [-1.9994136095046997, -0.0059324149042367935, 0.048064980655908585, 108.04364776611328],
    [-0.0182008258998394, 1.9314733743667603, -0.518728494644165, -73.95833587646484],
    [0.04487946256995201, 0.5190138220787048, 1.930961012840271, -44.32586669921875],
    [0.0, 0.0, 0.0, 1.0]
],
  "dcmmeta_reorient_transform": [
    [0.0, -1.0, 0.0, 103.0],
    [1.0, 0.0, 0.0, 0.0],
    [0.0, 0.0, 1.0, 0.0],
    [0.0, 0.0, 0.0, 1.0]
],
  "dcmmeta_shape": [104, 104, 60, 373],
  "dcmmeta_slice_dim": 2,
  "dcmmeta_version": 0.6,
  "global": {
    "const": {
      "AcquisitionMatrix": [104, 0, 0, 104],
      "AngioFlag": "N",
      "BitsAllocated": 16,
      "BitsStored": 16,
      "BodyPartExamined": "BRAIN",
      "Columns": 832,
      "EchoNumbers": 1,
      "EchoTime": 37.0,
      "EchoTrainLength": 104,
      "FlipAngle": 52.0,
      "HighBit": 15,
      "ImageOrientationPatient": [0.99970677749351, 0.00910041275092, 0.02243973086548, -0.0029662073796, 0.96573669886523, -0.2595068979404],
      "ImagePositionPatient": [-833.05974051448, -834.66483964235, 181.7174506791],
      "ImageType": [
        "ORIGINAL",
        "PRIMARY",
        "M",
        "MB",
        "ND",
        "MOSAIC"
],
      "ImagedNucleus": "1H",
      "ImagingFrequency": 123.258952,
      "InPlanePhaseEncodingDirection": "COL",
      "MRAcquisitionType": "2D",
      "MagneticFieldStrength": 3.0,
      "Manufacturer": "SIEMENS",
      "ManufacturerModelName": "Prisma_fit",
      "Modality": "MR",
      "NumberOfAverages": 1.0,
      "NumberOfPhaseEncodingSteps": 104,
      "PercentPhaseFieldOfView": 100.0,
      "PercentSampling": 100.0,
      "PerformedProcedureStepStartTime": "153849.661000",
      "PhotometricInterpretation": "MONOCHROME2",
      "PixelBandwidth": 2290.0,
      "PixelRepresentation": 0,
      "PixelSpacing": [2.0, 2.0],
      "ProtocolName": "func_task-harrypotter_run-3",
      "RepetitionTime": 1490.0,
      "Rows": 832,
      "SAR": 0.03169105700071,
      "SamplesPerPixel": 1,
      "ScanOptions": "FS",
      "ScanningSequence": "EP",
      "SequenceName": "epfid2d1_104",
      "SequenceVariant": [
        "SK",
        "SS"
],
      "SeriesDescription": "func_task-harrypotter_run-3",
      "SeriesNumber": 18,
      "SeriesTime": "162546.237000",
      "SliceLocation": -21.017055618012,
      "SliceThickness": 2.0,
      "SmallestImagePixelValue": 0,
      "SoftwareVersions": "syngo MR E11",
      "SpacingBetweenSlices": 1.9999999630239,
      "SpecificCharacterSet": "ISO_IR 100",
      "StudyID": "1",
      "StudyTime": "153849.607000",
      "TransmitCoilName": "Body",
      "VariableFlipAngleFlag": "N",
      "WindowCenterWidthExplanation": "Algo1",
      "dBdt": 0.0},
    "slices": {}
  },
  "time": {
    "samples": {
      "AcquisitionNumber": [1, 2, 3, 4, 5, 6, 7, 8, 9, 10, 11, 12, 13, 14, 15, 16, 17, 18, 19, 20, 21, 22, 23, 24, 25, 26, 27, 28, 29, 30, 31, 32, 33, 34, 35, 36, 37, 38, 39, 40, 41, 42, 43, 44, 45, 46, 47, 48, 49, 50, 51, 52, 53, 54, 55, 56, 57, 58, 59, 60, 61, 62, 63, 64, 65, 66, 67, 68, 69, 70, 71, 72, 73, 74, 75, 76, 77, 78, 79, 80, 81, 82, 83, 84, 85, 86, 87, 88, 89, 90, 91, 92, 93, 94, 95, 96, 97, 98, 99, 100, 101, 102, 103, 104, 105, 106, 107, 108, 109, 110, 111, 112, 113, 114, 115, 116, 117, 118, 119, 120, 121, 122, 123, 124, 125, 126, 127, 128, 129, 130, 131, 132, 133, 134, 135, 136, 137, 138, 139, 140, 141, 142, 143, 144, 145, 146, 147, 148, 149, 150, 151, 152, 153, 154, 155, 156, 157, 158, 159, 160, 161, 162, 163, 164, 165, 166, 167, 168, 169, 170, 171, 172, 173, 174, 175, 176, 177, 178, 179, 180, 181, 182, 183, 184, 185, 186, 187, 188, 189, 190, 191, 192, 193, 194, 195, 196, 197, 198, 199, 200, 201, 202, 203, 204, 205, 206, 207, 208, 209, 210, 211, 212, 213, 214, 215, 216, 217, 218, 219, 220, 221, 222, 223, 224, 225, 226, 227, 228, 229, 230, 231, 232, 233, 234, 235, 236, 237, 238, 239, 240, 241, 242, 243, 244, 245, 246, 247, 248, 249, 250, 251, 252, 253, 254, 255, 256, 257, 258, 259, 260, 261, 262, 263, 264, 265, 266, 267, 268, 269, 270, 271, 272, 273, 274, 275, 276, 277, 278, 279, 280, 281, 282, 283, 284, 285, 286, 287, 288, 289, 290, 291, 292, 293, 294, 295, 296, 297, 298, 299, 300, 301, 302, 303, 304, 305, 306, 307, 308, 309, 310, 311, 312, 313, 314, 315, 316, 317, 318, 319, 320, 321, 322, 323, 324, 325, 326, 327, 328, 329, 330, 331, 332, 333, 334, 335, 336, 337, 338, 339, 340, 341, 342, 343, 344, 345, 346, 347, 348, 349, 350, 351, 352, 353, 354, 355, 356, 357, 358, 359, 360, 361, 362, 363, 364, 365, 366, 367, 368, 369, 370, 371, 372, 373],
      "AcquisitionTime": ["162421.162500", "162422.652500", "162424.142500", "162425.632500", "162427.122500", "162428.612500", "162430.102500", "162431.592500", "162433.082500", "162434.572500", "162436.062500", "162437.552500", "162439.042500", "162440.532500", "162442.022500", "162443.512500", "162445.002500", "162446.492500", "162447.982500", "162449.472500", "162450.962500", "162452.452500", "162453.942500", "162455.432500", "162456.922500", "162458.412500", "162459.902500", "162501.392500", "162502.882500", "162504.372500", "162505.862500", "162507.352500", "162508.842500", "162510.332500", "162511.822500", "162513.312500", "162514.802500", "162516.292500", "162517.782500", "162519.272500", "162520.762500", "162522.252500", "162523.742500", "162525.232500", "162526.722500", "162528.212500", "162529.702500", "162531.192500", "162532.682500", "162534.172500", "162535.662500", "162537.152500", "162538.642500", "162540.132500", "162541.622500", "162543.112500", "162544.602500", "162546.092500", "162547.582500", "162549.072500", "162550.562500", "162552.052500", "162553.542500", "162555.032500", "162556.522500", "162558.012500", "162559.502500", "162600.992500", "162602.482500", "162603.972500", "162605.462500", "162606.952500", "162608.442500", "162609.932500", "162611.422500", "162612.912500", "162614.402500", "162615.892500", "162617.382500", "162618.872500", "162620.362500", "162621.852500", "162623.342500", "162624.832500", "162626.322500", "162627.812500", "162629.302500", "162630.792500", "162632.282500", "162633.772500", "162635.262500", "162636.752500", "162638.242500", "162639.732500", "162641.222500", "162642.712500", "162644.202500", "162645.692500", "162647.182500", "162648.672500", "162650.162500", "162651.652500", "162653.142500", "162654.632500", "162656.122500", "162657.612500", "162659.102500", "162700.592500", "162702.082500", "162703.572500", "162705.062500", "162706.552500", "162708.042500", "162709.532500", "162711.022500", "162712.512500", "162714.002500", "162715.492500", "162716.982500", "162718.472500", "162719.962500", "162721.452500", "162722.942500", "162724.432500", "162725.922500", "162727.412500", "162728.902500", "162730.392500", "162731.882500", "162733.372500", "162734.862500", "162736.352500", "162737.842500", "162739.332500", "162740.822500", "162742.312500", "162743.802500", "162745.292500", "162746.782500", "162748.272500", "162749.762500", "162751.252500", "162752.742500", "162754.232500", "162755.722500", "162757.212500", "162758.702500", "162800.192500", "162801.682500", "162803.172500", "162804.662500", "162806.152500", "162807.642500", "162809.132500", "162810.622500", "162812.112500", "162813.602500", "162815.092500", "162816.582500", "162818.072500", "162819.562500", "162821.052500", "162822.542500", "162824.032500", "162825.522500", "162827.012500", "162828.502500", "162829.992500", "162831.482500", "162832.972500", "162834.462500", "162835.952500", "162837.442500", "162838.932500", "162840.422500", "162841.912500", "162843.402500", "162844.892500", "162846.382500", "162847.872500", "162849.362500", "162850.852500", "162852.342500", "162853.832500", "162855.322500", "162856.812500", "162858.302500", "162859.792500", "162901.282500", "162902.772500", "162904.262500", "162905.752500", "162907.242500", "162908.732500", "162910.222500", "162911.712500", "162913.202500", "162914.692500", "162916.182500", "162917.672500", "162919.162500", "162920.652500", "162922.142500", "162923.632500", "162925.122500", "162926.612500", "162928.102500", "162929.592500", "162931.082500", "162932.572500", "162934.062500", "162935.552500", "162937.042500", "162938.532500", "162940.022500", "162941.512500", "162943.002500", "162944.492500", "162945.982500", "162947.472500", "162948.962500", "162950.452500", "162951.942500", "162953.432500", "162954.922500", "162956.412500", "162957.902500", "162959.392500", "163000.882500", "163002.372500", "163003.862500", "163005.352500", "163006.842500", "163008.332500", "163009.822500", "163011.312500", "163012.802500", "163014.292500", "163015.782500", "163017.272500", "163018.762500", "163020.252500", "163021.742500", "163023.232500", "163024.722500", "163026.212500", "163027.702500", "163029.192500", "163030.682500", "163032.172500", "163033.662500", "163035.152500", "163036.642500", "163038.132500", "163039.622500", "163041.112500", "163042.602500", "163044.092500", "163045.582500", "163047.072500", "163048.562500", "163050.052500", "163051.542500", "163053.032500", "163054.522500", "163056.012500", "163057.502500", "163058.992500", "163100.482500", "163101.972500", "163103.462500", "163104.952500", "163106.442500", "163107.932500", "163109.422500", "163110.912500", "163112.402500", "163113.892500", "163115.382500", "163116.872500", "163118.362500", "163119.852500", "163121.342500", "163122.832500", "163124.322500", "163125.812500", "163127.302500", "163128.792500", "163130.282500", "163131.772500", "163133.262500", "163134.752500", "163136.242500", "163137.732500", "163139.222500", "163140.712500", "163142.202500", "163143.692500", "163145.182500", "163146.672500", "163148.162500", "163149.652500", "163151.142500", "163152.632500", "163154.122500", "163155.612500", "163157.102500", "163158.592500", "163200.082500", "163201.572500", "163203.062500", "163204.552500", "163206.042500", "163207.532500", "163209.022500", "163210.512500", "163212.002500", "163213.492500", "163214.982500", "163216.472500", "163217.962500", "163219.452500", "163220.942500", "163222.432500", "163223.922500", "163225.412500", "163226.902500", "163228.392500", "163229.882500", "163231.372500", "163232.862500", "163234.352500", "163235.842500", "163237.332500", "163238.822500", "163240.312500", "163241.802500", "163243.292500", "163244.782500", "163246.272500", "163247.762500", "163249.252500", "163250.742500", "163252.232500", "163253.722500", "163255.212500", "163256.702500", "163258.192500", "163259.682500", "163301.172500", "163302.662500", "163304.152500", "163305.642500", "163307.132500", "163308.622500", "163310.112500", "163311.602500", "163313.092500", "163314.582500", "163316.072500", "163317.562500", "163319.052500", "163320.542500", "163322.032500", "163323.522500", "163325.012500", "163326.502500", "163327.992500", "163329.482500", "163330.972500", "163332.462500", "163333.952500", "163335.442500"],
      "ContentTime": ["162546.239000", "162546.243000", "162546.246000", "162546.249000", "162546.251000", "162546.254000", "162546.257000", "162546.260000", "162546.263000", "162546.266000", "162546.269000", "162546.271000", "162546.274000", "162546.277000", "162546.280000", "162546.283000", "162546.286000", "162546.289000", "162546.292000", "162546.295000", "162546.297000", "162546.306000", "162546.309000", "162546.312000", "162546.315000", "162546.318000", "162546.321000", "162546.324000", "162546.326000", "162546.329000", "162546.332000", "162606.174000", "162606.183000", "162606.186000", "162606.189000", "162606.192000", "162606.195000", "162606.198000", "162606.201000", "162606.203000", "162606.206000", "162606.209000", "162606.212000", "162606.215000", "162606.218000", "162606.220000", "162606.223000", "162606.226000", "162606.229000", "162606.232000", "162606.235000", "162626.174000", "162626.177000", "162626.180000", "162626.183000", "162626.186000", "162626.188000", "162626.191000", "162626.194000", "162626.197000", "162626.200000", "162626.203000", "162626.205000", "162626.208000", "162626.211000", "162626.214000", "162626.217000", "162626.220000", "162626.223000", "162626.233000", "162626.236000", "162646.174000", "162646.177000", "162646.180000", "162646.183000", "162646.186000", "162646.189000", "162646.192000", "162646.195000", "162646.198000", "162646.201000", "162646.204000", "162646.207000", "162646.210000", "162646.213000", "162646.215000", "162646.218000", "162646.221000", "162646.224000", "162646.227000", "162646.230000", "162726.173000", "162726.187000", "162726.190000", "162726.193000", "162726.196000", "162726.199000", "162726.202000", "162726.204000", "162726.207000", "162726.210000", "162726.213000", "162726.216000", "162726.219000", "162726.222000", "162726.224000", "162726.227000", "162726.230000", "162726.233000", "162726.236000", "162726.239000", "162726.242000", "162726.245000", "162726.247000", "162726.250000", "162726.253000", "162726.256000", "162726.259000", "162726.262000", "162726.265000", "162726.268000", "162726.271000", "162726.273000", "162726.276000", "162806.174000", "162806.177000", "162806.180000", "162806.183000", "162806.186000", "162806.188000", "162806.191000", "162806.194000", "162806.197000", "162806.209000", "162806.212000", "162806.215000", "162806.218000", "162806.221000", "162806.224000", "162806.227000", "162806.229000", "162806.232000", "162806.235000", "162806.238000", "162806.241000", "162806.244000", "162806.247000", "162806.250000", "162806.252000", "162806.255000", "162846.174000", "162846.177000", "162846.180000", "162846.183000", "162846.186000", "162846.188000", "162846.191000", "162846.194000", "162846.197000", "162846.200000", "162846.203000", "162846.206000", "162846.208000", "162846.211000", "162846.214000", "162846.223000", "162846.226000", "162846.229000", "162846.232000", "162846.234000", "162846.237000", "162846.240000", "162846.243000", "162846.246000", "162846.249000", "162846.252000", "162846.255000", "162926.173000", "162926.176000", "162926.179000", "162926.182000", "162926.184000", "162926.187000", "162926.190000", "162926.193000", "162926.196000", "162926.199000", "162926.202000", "162926.205000", "162926.208000", "162926.211000", "162926.214000", "162926.217000", "162926.219000", "162926.226000", "162926.229000", "162926.232000", "162926.235000", "162926.238000", "162926.241000", "162926.244000", "162926.247000", "162926.250000", "162926.253000", "163006.174000", "163006.177000", "163006.180000", "163006.183000", "163006.186000", "163006.189000", "163006.192000", "163006.195000", "163006.198000", "163006.200000", "163006.203000", "163006.206000", "163006.209000", "163006.212000", "163006.215000", "163006.218000", "163006.220000", "163006.223000", "163006.226000", "163006.229000", "163006.232000", "163006.235000", "163006.238000", "163006.241000", "163006.244000", "163006.247000", "163006.249000", "163046.174000", "163046.177000", "163046.180000", "163046.183000", "163046.186000", "163046.188000", "163046.191000", "163046.194000", "163046.197000", "163046.200000", "163046.203000", "163046.206000", "163046.208000", "163046.211000", "163046.214000", "163046.217000", "163046.220000", "163046.223000", "163046.225000", "163046.228000", "163046.231000", "163046.234000", "163046.237000", "163046.240000", "163046.243000", "163046.246000", "163046.249000", "163106.174000", "163106.177000", "163106.180000", "163106.183000", "163106.204000", "163106.207000", "163106.210000", "163106.213000", "163106.216000", "163106.219000", "163106.222000", "163106.224000", "163106.227000", "163146.173000", "163146.176000", "163146.179000", "163146.182000", "163146.184000", "163146.187000", "163146.190000", "163146.193000", "163146.196000", "163146.199000", "163146.202000", "163146.205000", "163146.208000", "163146.211000", "163146.213000", "163146.216000", "163146.219000", "163146.222000", "163146.225000", "163146.228000", "163146.231000", "163146.234000", "163146.236000", "163146.239000", "163146.242000", "163146.245000", "163146.248000", "163226.174000", "163226.177000", "163226.180000", "163226.183000", "163226.186000", "163226.188000", "163226.191000", "163226.194000", "163226.197000", "163226.200000", "163226.203000", "163226.206000", "163226.209000", "163226.212000", "163226.214000", "163226.217000", "163226.220000", "163226.223000", "163226.226000", "163226.229000", "163226.231000", "163226.234000", "163226.237000", "163226.240000", "163226.243000", "163226.246000", "163226.249000", "163306.174000", "163306.177000", "163306.180000", "163306.183000", "163306.185000", "163306.188000", "163306.191000", "163306.194000", "163306.197000", "163306.200000", "163306.213000", "163306.216000", "163306.219000", "163306.222000", "163306.225000", "163306.228000", "163306.231000", "163306.233000", "163306.236000", "163306.239000", "163306.242000", "163306.245000", "163306.248000", "163306.251000", "163306.253000", "163306.256000", "163306.259000", "163337.129000", "163337.132000", "163337.135000", "163337.138000", "163337.141000", "163337.144000", "163337.147000", "163337.149000", "163337.152000", "163337.155000", "163337.158000", "163337.161000", "163337.164000", "163337.167000", "163337.170000", "163337.173000", "163337.176000", "163337.179000", "163337.182000", "163337.185000", "163337.188000"],
      "InstanceCreationTime": ["162546.239000", "162546.243000", "162546.246000", "162546.249000", "162546.251000", "162546.254000", "162546.257000", "162546.260000", "162546.263000", "162546.266000", "162546.269000", "162546.271000", "162546.274000", "162546.277000", "162546.280000", "162546.283000", "162546.286000", "162546.289000", "162546.292000", "162546.295000", "162546.297000", "162546.306000", "162546.309000", "162546.312000", "162546.315000", "162546.318000", "162546.321000", "162546.324000", "162546.326000", "162546.329000", "162546.332000", "162606.174000", "162606.183000", "162606.186000", "162606.189000", "162606.192000", "162606.195000", "162606.198000", "162606.201000", "162606.203000", "162606.206000", "162606.209000", "162606.212000", "162606.215000", "162606.218000", "162606.220000", "162606.223000", "162606.226000", "162606.229000", "162606.232000", "162606.235000", "162626.174000", "162626.177000", "162626.180000", "162626.183000", "162626.186000", "162626.188000", "162626.191000", "162626.194000", "162626.197000", "162626.200000", "162626.203000", "162626.205000", "162626.208000", "162626.211000", "162626.214000", "162626.217000", "162626.220000", "162626.223000", "162626.233000", "162626.236000", "162646.174000", "162646.177000", "162646.180000", "162646.183000", "162646.186000", "162646.189000", "162646.192000", "162646.195000", "162646.198000", "162646.201000", "162646.204000", "162646.207000", "162646.210000", "162646.213000", "162646.215000", "162646.218000", "162646.221000", "162646.224000", "162646.227000", "162646.230000", "162726.173000", "162726.187000", "162726.190000", "162726.193000", "162726.196000", "162726.199000", "162726.202000", "162726.204000", "162726.207000", "162726.210000", "162726.213000", "162726.216000", "162726.219000", "162726.222000", "162726.224000", "162726.227000", "162726.230000", "162726.233000", "162726.236000", "162726.239000", "162726.242000", "162726.245000", "162726.247000", "162726.250000", "162726.253000", "162726.256000", "162726.259000", "162726.262000", "162726.265000", "162726.268000", "162726.271000", "162726.273000", "162726.276000", "162806.174000", "162806.177000", "162806.180000", "162806.183000", "162806.186000", "162806.188000", "162806.191000", "162806.194000", "162806.197000", "162806.209000", "162806.212000", "162806.215000", "162806.218000", "162806.221000", "162806.224000", "162806.227000", "162806.229000", "162806.232000", "162806.235000", "162806.238000", "162806.241000", "162806.244000", "162806.247000", "162806.250000", "162806.252000", "162806.255000", "162846.174000", "162846.177000", "162846.180000", "162846.183000", "162846.186000", "162846.188000", "162846.191000", "162846.194000", "162846.197000", "162846.200000", "162846.203000", "162846.206000", "162846.208000", "162846.211000", "162846.214000", "162846.223000", "162846.226000", "162846.229000", "162846.232000", "162846.234000", "162846.237000", "162846.240000", "162846.243000", "162846.246000", "162846.249000", "162846.252000", "162846.255000", "162926.173000", "162926.176000", "162926.179000", "162926.182000", "162926.184000", "162926.187000", "162926.190000", "162926.193000", "162926.196000", "162926.199000", "162926.202000", "162926.205000", "162926.208000", "162926.211000", "162926.214000", "162926.217000", "162926.219000", "162926.226000", "162926.229000", "162926.232000", "162926.235000", "162926.238000", "162926.241000", "162926.244000", "162926.247000", "162926.250000", "162926.253000", "163006.174000", "163006.177000", "163006.180000", "163006.183000", "163006.186000", "163006.189000", "163006.192000", "163006.195000", "163006.198000", "163006.200000", "163006.203000", "163006.206000", "163006.209000", "163006.212000", "163006.215000", "163006.218000", "163006.220000", "163006.223000", "163006.226000", "163006.229000", "163006.232000", "163006.235000", "163006.238000", "163006.241000", "163006.244000", "163006.247000", "163006.249000", "163046.174000", "163046.177000", "163046.180000", "163046.183000", "163046.186000", "163046.188000", "163046.191000", "163046.194000", "163046.197000", "163046.200000", "163046.203000", "163046.206000", "163046.208000", "163046.211000", "163046.214000", "163046.217000", "163046.220000", "163046.223000", "163046.225000", "163046.228000", "163046.231000", "163046.234000", "163046.237000", "163046.240000", "163046.243000", "163046.246000", "163046.249000", "163106.174000", "163106.177000", "163106.180000", "163106.183000", "163106.204000", "163106.207000", "163106.210000", "163106.213000", "163106.216000", "163106.219000", "163106.222000", "163106.224000", "163106.227000", "163146.173000", "163146.176000", "163146.179000", "163146.182000", "163146.184000", "163146.187000", "163146.190000", "163146.193000", "163146.196000", "163146.199000", "163146.202000", "163146.205000", "163146.208000", "163146.211000", "163146.213000", "163146.216000", "163146.219000", "163146.222000", "163146.225000", "163146.228000", "163146.231000", "163146.234000", "163146.236000", "163146.239000", "163146.242000", "163146.245000", "163146.248000", "163226.174000", "163226.177000", "163226.180000", "163226.183000", "163226.186000", "163226.188000", "163226.191000", "163226.194000", "163226.197000", "163226.200000", "163226.203000", "163226.206000", "163226.209000", "163226.212000", "163226.214000", "163226.217000", "163226.220000", "163226.223000", "163226.226000", "163226.229000", "163226.231000", "163226.234000", "163226.237000", "163226.240000", "163226.243000", "163226.246000", "163226.249000", "163306.174000", "163306.177000", "163306.180000", "163306.183000", "163306.185000", "163306.188000", "163306.191000", "163306.194000", "163306.197000", "163306.200000", "163306.213000", "163306.216000", "163306.219000", "163306.222000", "163306.225000", "163306.228000", "163306.231000", "163306.233000", "163306.236000", "163306.239000", "163306.242000", "163306.245000", "163306.248000", "163306.251000", "163306.253000", "163306.256000", "163306.259000", "163337.129000", "163337.132000", "163337.135000", "163337.138000", "163337.141000", "163337.144000", "163337.147000", "163337.149000", "163337.152000", "163337.155000", "163337.158000", "163337.161000", "163337.164000", "163337.167000", "163337.170000", "163337.173000", "163337.176000", "163337.179000", "163337.182000", "163337.185000", "163337.188000"],
      "InstanceNumber": [1, 2, 3, 4, 5, 6, 7, 8, 9, 10, 11, 12, 13, 14, 15, 16, 17, 18, 19, 20, 21, 22, 23, 24, 25, 26, 27, 28, 29, 30, 31, 32, 33, 34, 35, 36, 37, 38, 39, 40, 41, 42, 43, 44, 45, 46, 47, 48, 49, 50, 51, 52, 53, 54, 55, 56, 57, 58, 59, 60, 61, 62, 63, 64, 65, 66, 67, 68, 69, 70, 71, 72, 73, 74, 75, 76, 77, 78, 79, 80, 81, 82, 83, 84, 85, 86, 87, 88, 89, 90, 91, 92, 93, 94, 95, 96, 97, 98, 99, 100, 101, 102, 103, 104, 105, 106, 107, 108, 109, 110, 111, 112, 113, 114, 115, 116, 117, 118, 119, 120, 121, 122, 123, 124, 125, 126, 127, 128, 129, 130, 131, 132, 133, 134, 135, 136, 137, 138, 139, 140, 141, 142, 143, 144, 145, 146, 147, 148, 149, 150, 151, 152, 153, 154, 155, 156, 157, 158, 159, 160, 161, 162, 163, 164, 165, 166, 167, 168, 169, 170, 171, 172, 173, 174, 175, 176, 177, 178, 179, 180, 181, 182, 183, 184, 185, 186, 187, 188, 189, 190, 191, 192, 193, 194, 195, 196, 197, 198, 199, 200, 201, 202, 203, 204, 205, 206, 207, 208, 209, 210, 211, 212, 213, 214, 215, 216, 217, 218, 219, 220, 221, 222, 223, 224, 225, 226, 227, 228, 229, 230, 231, 232, 233, 234, 235, 236, 237, 238, 239, 240, 241, 242, 243, 244, 245, 246, 247, 248, 249, 250, 251, 252, 253, 254, 255, 256, 257, 258, 259, 260, 261, 262, 263, 264, 265, 266, 267, 268, 269, 270, 271, 272, 273, 274, 275, 276, 277, 278, 279, 280, 281, 282, 283, 284, 285, 286, 287, 288, 289, 290, 291, 292, 293, 294, 295, 296, 297, 298, 299, 300, 301, 302, 303, 304, 305, 306, 307, 308, 309, 310, 311, 312, 313, 314, 315, 316, 317, 318, 319, 320, 321, 322, 323, 324, 325, 326, 327, 328, 329, 330, 331, 332, 333, 334, 335, 336, 337, 338, 339, 340, 341, 342, 343, 344, 345, 346, 347, 348, 349, 350, 351, 352, 353, 354, 355, 356, 357, 358, 359, 360, 361, 362, 363, 364, 365, 366, 367, 368, 369, 370, 371, 372, 373],
