{
  "AcquisitionMatrixPE": 104,
  "AcquisitionNumber": 1,
  "AcquisitionTime": "16:42:21.902500",
  "BandwidthPerPixelPhaseEncode": 17.17,
  "BaseResolution": 104,
  "BodyPartExamined": "BRAIN",
  "CoilString": "HC1-7;NC1_2",
  "ConsistencyInfo": "N4_VE11C_LATEST_20160120",
  "ConversionSoftware": "dcm2niix",
  "ConversionSoftwareVersion": "v1.0.20190902",
  "DerivedVendorReportedEchoSpacing": 0.000560011,
  "DeviceSerialNumber": "167006",
  "DwellTime": 2.1e-06,
  "EchoTime": 0.037,
  "EchoTrainLength": 104,
  "EffectiveEchoSpacing": 0.000560011,
  "FlipAngle": 52,
  "ImageComments": "Unaliased_MB4_PE3_LB",
  "ImageOrientationPatientDICOM": [0.99931, 0.0125864, 0.0349313, -0.00593009, 0.982818, -0.184481],
  "ImageType": [
    "ORIGINAL",
    "PRIMARY",
    "M",
    "MB",
    "ND",
    "MOSAIC"
],
  "ImagingFrequency": 123.259,
  "InPlanePhaseEncodingDirectionDICOM": "COL",
  "InstitutionAddress": "Chemin_Queen-Mary_4565_Montreal_District_CA_H3W_1W5",
  "InstitutionName": "IUGM",
  "InstitutionalDepartmentName": "Department",
  "MRAcquisitionType": "2D",
  "MagneticFieldStrength": 3,
  "Manufacturer": "Siemens",
  "ManufacturersModelName": "Prisma_fit",
  "Modality": "MR",
  "MultibandAccelerationFactor": 4,
  "PartialFourier": 1,
  "PatientPosition": "HFS",
  "PercentPhaseFOV": 100,
  "PhaseEncodingDirection": "j",
  "PhaseEncodingSteps": 104,
  "PhaseResolution": 1,
  "PixelBandwidth": 2290,
  "ProcedureStepDescription": "language_harrypotter",
  "ProtocolName": "func_task-harrypotter_run-4",
  "PulseSequenceDetails": "%CustomerSeq%_cmrr_mbep2d_bold",
  "ReceiveCoilActiveElements": "HC1-7;NC1,2",
  "ReceiveCoilName": "HeadNeck_64",
  "ReconMatrixPE": 104,
  "RepetitionTime": 1.49,
  "SAR": 0.0331006,
  "ScanOptions": "FS",
  "ScanningSequence": "EP",
  "SequenceName": "epfid2d1_104",
  "SequenceVariant": "SK_SS",
  "SeriesDescription": "func_task-harrypotter_run-4",
  "SeriesNumber": 27,
  "ShimSetting": [649, -7259, -8734, 681, 61, -108, 145, 7],
  "SliceThickness": 2,
  "SliceTiming": [0, 0.7825, 0.0975, 0.8825, 0.195, 0.98, 0.2925, 1.0775, 0.3925, 1.175, 0.49, 1.2725, 0.5875, 1.3725, 0.685, 0, 0.7825, 0.0975, 0.8825, 0.195, 0.98, 0.2925, 1.0775, 0.3925, 1.175, 0.49, 1.2725, 0.5875, 1.3725, 0.685, 0, 0.7825, 0.0975, 0.8825, 0.195, 0.98, 0.2925, 1.0775, 0.3925, 1.175, 0.49, 1.2725, 0.5875, 1.3725, 0.685, 0, 0.7825, 0.0975, 0.8825, 0.195, 0.98, 0.2925, 1.0775, 0.3925, 1.175, 0.49, 1.2725, 0.5875, 1.3725, 0.685],
  "SoftwareVersions": "syngo_MR_E11",
  "SpacingBetweenSlices": 2,
  "StationName": "MRC35049",
  "TaskName": "harrypotter",
  "TotalReadoutTime": 0.0576811,
  "TxRefAmp": 210.253,
  "WipMemBlock": "320e42f7-bb86-4f32-a1bc-c3fa0f54914b||Sequence: R016 ve11c/master r/e634e98; Dec 19 2017 11:00:25 by eja",
  "dcmmeta_affine": [
    [-1.998620867729187, -0.011860180646181107, 0.07330610603094101, 107.33969116210938],
    [-0.025172797963023186, 1.9656366109848022, -0.36829233169555664, -77.83991241455078],
    [0.06986257433891296, 0.36896100640296936, 1.964430570602417, -35.12871551513672],
    [0.0, 0.0, 0.0, 1.0]
],
  "dcmmeta_reorient_transform": [
    [0.0, -1.0, 0.0, 103.0],
    [1.0, 0.0, 0.0, 0.0],
    [0.0, 0.0, 1.0, 0.0],
    [0.0, 0.0, 0.0, 1.0]
],
  "dcmmeta_shape": [104, 104, 60, 509],
  "dcmmeta_slice_dim": 2,
  "dcmmeta_version": 0.6,
  "global": {
    "const": {
      "AcquisitionMatrix": [104, 0, 0, 104],
      "AngioFlag": "N",
      "BitsAllocated": 16,
      "BitsStored": 16,
      "BodyPartExamined": "BRAIN",
      "Columns": 832,
      "EchoNumbers": 1,
      "EchoTime": 37.0,
      "EchoTrainLength": 104,
      "FlipAngle": 52.0,
      "HighBit": 15,
      "ImageOrientationPatient": [0.99931045618796, 0.01258639865639, 0.03493128572325, -0.0059300904432, 0.98281828245012, -0.1844805076672],
      "ImagePositionPatient": [-829.29899978206, -849.27526073592, 111.74610152971],
      "ImageType": [
        "ORIGINAL",
        "PRIMARY",
        "M",
        "MB",
        "ND",
        "MOSAIC"
],
      "ImagedNucleus": "1H",
      "ImagingFrequency": 123.258944,
      "InPlanePhaseEncodingDirection": "COL",
      "MRAcquisitionType": "2D",
      "MagneticFieldStrength": 3.0,
      "Manufacturer": "SIEMENS",
      "ManufacturerModelName": "Prisma_fit",
      "Modality": "MR",
      "NumberOfAverages": 1.0,
      "NumberOfPhaseEncodingSteps": 104,
      "PercentPhaseFieldOfView": 100.0,
      "PercentSampling": 100.0,
      "PerformedProcedureStepStartTime": "153849.661000",
      "PhotometricInterpretation": "MONOCHROME2",
      "PixelBandwidth": 2290.0,
      "PixelRepresentation": 0,
      "PixelSpacing": [2.0, 2.0],
      "ProtocolName": "func_task-harrypotter_run-4",
      "RepetitionTime": 1490.0,
      "Rows": 832,
      "SAR": 0.03310058500505,
      "SamplesPerPixel": 1,
      "ScanOptions": "FS",
      "ScanningSequence": "EP",
      "SequenceName": "epfid2d1_104",
      "SequenceVariant": [
        "SK",
        "SS"
],
      "SeriesDescription": "func_task-harrypotter_run-4",
      "SeriesNumber": 27,
      "SeriesTime": "164338.787000",
      "SliceLocation": -16.235712325874,
      "SliceThickness": 2.0,
      "SmallestImagePixelValue": 0,
      "SoftwareVersions": "syngo MR E11",
      "SpacingBetweenSlices": 2.0000000651826,
      "SpecificCharacterSet": "ISO_IR 100",
      "StudyID": "1",
      "StudyTime": "153849.607000",
      "TransmitCoilName": "Body",
      "VariableFlipAngleFlag": "N",
      "WindowCenterWidthExplanation": "Algo1",
      "dBdt": 0.0},
    "slices": {}
  },
  "time": {
    "samples": {
      "AcquisitionNumber": [1, 2, 3, 4, 5, 6, 7, 8, 9, 10, 11, 12, 13, 14, 15, 16, 17, 18, 19, 20, 21, 22, 23, 24, 25, 26, 27, 28, 29, 30, 31, 32, 33, 34, 35, 36, 37, 38, 39, 40, 41, 42, 43, 44, 45, 46, 47, 48, 49, 50, 51, 52, 53, 54, 55, 56, 57, 58, 59, 60, 61, 62, 63, 64, 65, 66, 67, 68, 69, 70, 71, 72, 73, 74, 75, 76, 77, 78, 79, 80, 81, 82, 83, 84, 85, 86, 87, 88, 89, 90, 91, 92, 93, 94, 95, 96, 97, 98, 99, 100, 101, 102, 103, 104, 105, 106, 107, 108, 109, 110, 111, 112, 113, 114, 115, 116, 117, 118, 119, 120, 121, 122, 123, 124, 125, 126, 127, 128, 129, 130, 131, 132, 133, 134, 135, 136, 137, 138, 139, 140, 141, 142, 143, 144, 145, 146, 147, 148, 149, 150, 151, 152, 153, 154, 155, 156, 157, 158, 159, 160, 161, 162, 163, 164, 165, 166, 167, 168, 169, 170, 171, 172, 173, 174, 175, 176, 177, 178, 179, 180, 181, 182, 183, 184, 185, 186, 187, 188, 189, 190, 191, 192, 193, 194, 195, 196, 197, 198, 199, 200, 201, 202, 203, 204, 205, 206, 207, 208, 209, 210, 211, 212, 213, 214, 215, 216, 217, 218, 219, 220, 221, 222, 223, 224, 225, 226, 227, 228, 229, 230, 231, 232, 233, 234, 235, 236, 237, 238, 239, 240, 241, 242, 243, 244, 245, 246, 247, 248, 249, 250, 251, 252, 253, 254, 255, 256, 257, 258, 259, 260, 261, 262, 263, 264, 265, 266, 267, 268, 269, 270, 271, 272, 273, 274, 275, 276, 277, 278, 279, 280, 281, 282, 283, 284, 285, 286, 287, 288, 289, 290, 291, 292, 293, 294, 295, 296, 297, 298, 299, 300, 301, 302, 303, 304, 305, 306, 307, 308, 309, 310, 311, 312, 313, 314, 315, 316, 317, 318, 319, 320, 321, 322, 323, 324, 325, 326, 327, 328, 329, 330, 331, 332, 333, 334, 335, 336, 337, 338, 339, 340, 341, 342, 343, 344, 345, 346, 347, 348, 349, 350, 351, 352, 353, 354, 355, 356, 357, 358, 359, 360, 361, 362, 363, 364, 365, 366, 367, 368, 369, 370, 371, 372, 373, 374, 375, 376, 377, 378, 379, 380, 381, 382, 383, 384, 385, 386, 387, 388, 389, 390, 391, 392, 393, 394, 395, 396, 397, 398, 399, 400, 401, 402, 403, 404, 405, 406, 407, 408, 409, 410, 411, 412, 413, 414, 415, 416, 417, 418, 419, 420, 421, 422, 423, 424, 425, 426, 427, 428, 429, 430, 431, 432, 433, 434, 435, 436, 437, 438, 439, 440, 441, 442, 443, 444, 445, 446, 447, 448, 449, 450, 451, 452, 453, 454, 455, 456, 457, 458, 459, 460, 461, 462, 463, 464, 465, 466, 467, 468, 469, 470, 471, 472, 473, 474, 475, 476, 477, 478, 479, 480, 481, 482, 483, 484, 485, 486, 487, 488, 489, 490, 491, 492, 493, 494, 495, 496, 497, 498, 499, 500, 501, 502, 503, 504, 505, 506, 507, 508, 509],
      "AcquisitionTime": ["164221.902500", "164223.392500", "164224.882500", "164226.372500", "164227.862500", "164229.352500", "164230.842500", "164232.332500", "164233.822500", "164235.312500", "164236.802500", "164238.292500", "164239.782500", "164241.272500", "164242.762500", "164244.252500", "164245.742500", "164247.232500", "164248.722500", "164250.212500", "164251.702500", "164253.192500", "164254.682500", "164256.172500", "164257.662500", "164259.152500", "164300.642500", "164302.132500", "164303.622500", "164305.112500", "164306.602500", "164308.092500", "164309.582500", "164311.072500", "164312.562500", "164314.052500", "164315.542500", "164317.032500", "164318.522500", "164320.012500", "164321.502500", "164322.992500", "164324.482500", "164325.972500", "164327.462500", "164328.952500", "164330.442500", "164331.932500", "164333.422500", "164334.912500", "164336.402500", "164337.892500", "164339.382500", "164340.872500", "164342.362500", "164343.852500", "164345.342500", "164346.832500", "164348.322500", "164349.812500", "164351.302500", "164352.792500", "164354.282500", "164355.772500", "164357.262500", "164358.752500", "164400.242500", "164401.732500", "164403.222500", "164404.712500", "164406.202500", "164407.692500", "164409.182500", "164410.672500", "164412.162500", "164413.652500", "164415.142500", "164416.632500", "164418.122500", "164419.612500", "164421.102500", "164422.592500", "164424.082500", "164425.572500", "164427.062500", "164428.552500", "164430.042500", "164431.532500", "164433.022500", "164434.512500", "164436.002500", "164437.492500", "164438.982500", "164440.472500", "164441.962500", "164443.452500", "164444.942500", "164446.432500", "164447.922500", "164449.412500", "164450.902500", "164452.392500", "164453.882500", "164455.372500", "164456.862500", "164458.352500", "164459.842500", "164501.332500", "164502.822500", "164504.312500", "164505.802500", "164507.292500", "164508.782500", "164510.272500", "164511.762500", "164513.252500", "164514.742500", "164516.232500", "164517.722500", "164519.212500", "164520.702500", "164522.192500", "164523.682500", "164525.172500", "164526.662500", "164528.152500", "164529.642500", "164531.132500", "164532.622500", "164534.112500", "164535.602500", "164537.092500", "164538.582500", "164540.072500", "164541.562500", "164543.052500", "164544.542500", "164546.032500", "164547.522500", "164549.012500", "164550.502500", "164551.992500", "164553.482500", "164554.972500", "164556.462500", "164557.952500", "164559.442500", "164600.932500", "164602.422500", "164603.912500", "164605.402500", "164606.892500", "164608.382500", "164609.872500", "164611.362500", "164612.852500", "164614.342500", "164615.832500", "164617.322500", "164618.812500", "164620.302500", "164621.792500", "164623.282500", "164624.772500", "164626.262500", "164627.752500", "164629.242500", "164630.732500", "164632.222500", "164633.712500", "164635.202500", "164636.692500", "164638.182500", "164639.672500", "164641.162500", "164642.652500", "164644.142500", "164645.632500", "164647.122500", "164648.612500", "164650.102500", "164651.592500", "164653.082500", "164654.572500", "164656.062500", "164657.552500", "164659.042500", "164700.532500", "164702.022500", "164703.512500", "164705.002500", "164706.492500", "164707.982500", "164709.472500", "164710.962500", "164712.452500", "164713.942500", "164715.432500", "164716.922500", "164718.412500", "164719.902500", "164721.392500", "164722.882500", "164724.372500", "164725.862500", "164727.352500", "164728.842500", "164730.332500", "164731.822500", "164733.312500", "164734.802500", "164736.292500", "164737.782500", "164739.272500", "164740.762500", "164742.252500", "164743.742500", "164745.232500", "164746.722500", "164748.212500", "164749.702500", "164751.192500", "164752.682500", "164754.172500", "164755.662500", "164757.152500", "164758.642500", "164800.132500", "164801.622500", "164803.112500", "164804.602500", "164806.092500", "164807.582500", "164809.072500", "164810.562500", "164812.052500", "164813.542500", "164815.032500", "164816.522500", "164818.012500", "164819.502500", "164820.992500", "164822.482500", "164823.972500", "164825.462500", "164826.952500", "164828.442500", "164829.932500", "164831.422500", "164832.912500", "164834.402500", "164835.892500", "164837.382500", "164838.872500", "164840.362500", "164841.852500", "164843.342500", "164844.832500", "164846.322500", "164847.812500", "164849.302500", "164850.792500", "164852.282500", "164853.772500", "164855.262500", "164856.752500", "164858.242500", "164859.732500", "164901.222500", "164902.712500", "164904.202500", "164905.692500", "164907.182500", "164908.672500", "164910.162500", "164911.652500", "164913.142500", "164914.632500", "164916.122500", "164917.612500", "164919.102500", "164920.592500", "164922.082500", "164923.572500", "164925.062500", "164926.552500", "164928.042500", "164929.532500", "164931.022500", "164932.512500", "164934.002500", "164935.492500", "164936.982500", "164938.472500", "164939.962500", "164941.452500", "164942.942500", "164944.432500", "164945.922500", "164947.412500", "164948.902500", "164950.392500", "164951.882500", "164953.372500", "164954.862500", "164956.352500", "164957.842500", "164959.332500", "165000.822500", "165002.312500", "165003.802500", "165005.292500", "165006.782500", "165008.272500", "165009.762500", "165011.252500", "165012.742500", "165014.232500", "165015.722500", "165017.212500", "165018.702500", "165020.192500", "165021.682500", "165023.172500", "165024.662500", "165026.152500", "165027.642500", "165029.132500", "165030.622500", "165032.112500", "165033.602500", "165035.092500", "165036.582500", "165038.072500", "165039.562500", "165041.052500", "165042.542500", "165044.032500", "165045.522500", "165047.012500", "165048.502500", "165049.992500", "165051.482500", "165052.972500", "165054.462500", "165055.952500", "165057.442500", "165058.932500", "165100.422500", "165101.912500", "165103.402500", "165104.892500", "165106.382500", "165107.872500", "165109.362500", "165110.852500", "165112.342500", "165113.832500", "165115.322500", "165116.812500", "165118.302500", "165119.792500", "165121.282500", "165122.772500", "165124.262500", "165125.752500", "165127.242500", "165128.732500", "165130.222500", "165131.712500", "165133.202500", "165134.692500", "165136.182500", "165137.672500", "165139.162500", "165140.652500", "165142.142500", "165143.632500", "165145.122500", "165146.612500", "165148.102500", "165149.592500", "165151.082500", "165152.572500", "165154.062500", "165155.552500", "165157.042500", "165158.532500", "165200.022500", "165201.512500", "165203.002500", "165204.492500", "165205.982500", "165207.472500", "165208.962500", "165210.452500", "165211.942500", "165213.432500", "165214.922500", "165216.412500", "165217.902500", "165219.392500", "165220.882500", "165222.372500", "165223.862500", "165225.352500", "165226.842500", "165228.332500", "165229.822500", "165231.312500", "165232.802500", "165234.292500", "165235.782500", "165237.272500", "165238.762500", "165240.252500", "165241.742500", "165243.232500", "165244.722500", "165246.212500", "165247.702500", "165249.192500", "165250.682500", "165252.172500", "165253.662500", "165255.152500", "165256.642500", "165258.132500", "165259.622500", "165301.112500", "165302.602500", "165304.092500", "165305.582500", "165307.072500", "165308.562500", "165310.052500", "165311.542500", "165313.032500", "165314.522500", "165316.012500", "165317.502500", "165318.992500", "165320.482500", "165321.972500", "165323.462500", "165324.952500", "165326.442500", "165327.932500", "165329.422500", "165330.912500", "165332.402500", "165333.892500", "165335.382500", "165336.872500", "165338.362500", "165339.852500", "165341.342500", "165342.832500", "165344.322500", "165345.812500", "165347.302500", "165348.792500", "165350.282500", "165351.772500", "165353.262500", "165354.752500", "165356.242500", "165357.732500", "165359.222500", "165400.712500", "165402.202500", "165403.692500", "165405.182500", "165406.672500", "165408.162500", "165409.652500", "165411.142500", "165412.632500", "165414.122500", "165415.612500", "165417.102500", "165418.592500", "165420.082500", "165421.572500", "165423.062500", "165424.552500", "165426.042500", "165427.532500", "165429.022500", "165430.512500", "165432.002500", "165433.492500", "165434.982500", "165436.472500", "165437.962500", "165439.452500", "165440.942500", "165442.432500", "165443.922500", "165445.412500", "165446.902500", "165448.392500", "165449.882500", "165451.372500", "165452.862500", "165454.352500", "165455.842500", "165457.332500", "165458.822500"],
      "ContentTime": ["164338.790000", "164338.793000", "164338.796000", "164338.799000", "164338.802000", "164338.805000", "164338.808000", "164338.810000", "164338.813000", "164338.816000", "164338.819000", "164338.822000", "164338.825000", "164338.828000", "164338.831000", "164338.833000", "164338.836000", "164338.839000", "164338.842000", "164338.845000", "164338.848000", "164338.851000", "164338.854000", "164358.749000", "164358.752000", "164358.755000", "164358.758000", "164358.761000", "164358.764000", "164358.767000", "164358.770000", "164358.773000", "164358.775000", "164358.778000", "164358.781000", "164358.784000", "164358.787000", "164358.790000", "164358.793000", "164358.796000", "164358.798000", "164358.801000", "164358.804000", "164418.749000", "164418.752000", "164418.755000", "164418.758000", "164418.761000", "164418.763000", "164418.766000", "164418.769000", "164418.772000", "164418.796000", "164418.799000", "164418.803000", "164418.806000", "164418.810000", "164418.813000", "164418.816000", "164418.818000", "164418.821000", "164418.830000", "164418.833000", "164438.749000", "164438.752000", "164438.755000", "164438.757000", "164438.760000", "164438.763000", "164438.766000", "164438.769000", "164438.772000", "164438.775000", "164438.778000", "164438.781000", "164438.783000", "164438.786000", "164438.796000", "164438.798000", "164438.801000", "164438.804000", "164438.807000", "164438.810000", "164438.813000", "164458.750000", "164458.753000", "164458.756000", "164458.759000", "164458.762000", "164458.765000", "164458.767000", "164458.770000", "164458.773000", "164458.776000", "164458.786000", "164458.788000", "164458.791000", "164458.794000", "164458.797000", "164458.800000", "164458.803000", "164458.806000", "164458.809000", "164458.812000", "164538.750000", "164538.753000", "164538.756000", "164538.759000", "164538.762000", "164538.765000", "164538.767000", "164538.770000", "164538.773000", "164538.776000", "164538.779000", "164538.782000", "164538.785000", "164538.788000", "164538.790000", "164538.793000", "164538.796000", "164538.799000", "164538.802000", "164538.805000", "164538.808000", "164538.811000", "164538.813000", "164538.816000", "164538.819000", "164538.822000", "164538.825000", "164618.749000", "164618.752000", "164618.755000", "164618.758000", "164618.761000", "164618.763000", "164618.766000", "164618.769000", "164618.772000", "164618.775000", "164618.778000", "164618.781000", "164618.784000", "164618.787000", "164618.790000", "164618.800000", "164618.803000", "164618.806000", "164618.808000", "164618.811000", "164618.814000", "164618.817000", "164618.820000", "164618.823000", "164618.826000", "164618.829000", "164618.831000", "164658.749000", "164658.752000", "164658.755000", "164658.758000", "164658.760000", "164658.763000", "164658.766000", "164658.769000", "164658.772000", "164658.775000", "164658.778000", "164658.781000", "164658.784000", "164658.786000", "164658.790000", "164658.793000", "164658.795000", "164658.798000", "164658.801000", "164658.804000", "164658.807000", "164658.810000", "164658.813000", "164658.816000", "164658.819000", "164658.822000", "164658.825000", "164738.750000", "164738.753000", "164738.756000", "164738.759000", "164738.762000", "164738.765000", "164738.768000", "164738.770000", "164738.773000", "164738.776000", "164738.779000", "164738.782000", "164738.785000", "164738.788000", "164738.791000", "164738.794000", "164738.797000", "164738.800000", "164738.803000", "164738.805000", "164738.808000", "164738.811000", "164738.814000", "164738.817000", "164738.820000", "164738.823000", "164738.825000", "164818.749000", "164818.752000", "164818.755000", "164818.758000", "164818.761000", "164818.763000", "164818.766000", "164818.769000", "164818.772000", "164818.775000", "164818.778000", "164818.781000", "164818.784000", "164818.787000", "164818.789000", "164818.792000", "164818.795000", "164818.798000", "164818.801000", "164818.804000", "164818.807000", "164818.810000", "164818.813000", "164818.816000", "164818.819000", "164818.822000", "164858.749000", "164858.752000", "164858.755000", "164858.758000", "164858.761000", "164858.763000", "164858.766000", "164858.769000", "164858.772000", "164858.775000", "164858.778000", "164858.781000", "164858.784000", "164858.787000", "164858.795000", "164858.798000", "164858.813000", "164858.816000", "164858.819000", "164858.822000", "164858.825000", "164858.828000", "164858.830000", "164858.833000", "164858.836000", "164858.839000", "164858.842000", "164938.750000", "164938.753000", "164938.756000", "164938.759000", "164938.762000", "164938.764000", "164938.767000", "164938.770000", "164938.773000", "164938.776000", "164938.779000", "164938.782000", "164938.785000", "164938.788000", "164938.791000", "164938.793000", "164938.796000", "164938.799000", "164938.802000", "164938.805000", "164938.808000", "164938.811000", "164938.814000", "164938.817000", "164938.820000", "164938.822000", "164938.825000", "165018.750000", "165018.753000", "165018.756000", "165018.759000", "165018.762000", "165018.765000", "165018.768000", "165018.770000", "165018.773000", "165018.776000", "165018.779000", "165018.782000", "165018.785000", "165018.788000", "165018.791000", "165018.794000", "165018.797000", "165018.800000", "165018.802000", "165018.805000", "165018.808000", "165018.811000", "165018.814000", "165018.817000", "165018.820000", "165018.823000", "165018.826000", "165058.749000", "165058.752000", "165058.755000", "165058.758000", "165058.761000", "165058.764000", "165058.767000", "165058.769000", "165058.772000", "165058.775000", "165058.778000", "165058.781000", "165058.784000", "165058.787000", "165058.790000", "165058.793000", "165058.796000", "165058.798000", "165058.801000", "165058.804000", "165058.807000", "165058.810000", "165058.813000", "165058.816000", "165058.819000", "165058.822000", "165058.824000", "165118.749000", "165118.752000", "165118.755000", "165118.758000", "165118.761000", "165118.764000", "165118.767000", "165118.770000", "165118.772000", "165118.775000", "165118.778000", "165118.781000", "165118.784000", "165158.750000", "165158.753000", "165158.756000", "165158.759000", "165158.762000", "165158.765000", "165158.768000", "165158.771000", "165158.774000", "165158.776000", "165158.779000", "165158.782000", "165158.785000", "165158.788000", "165158.791000", "165158.794000", "165158.797000", "165158.800000", "165158.802000", "165158.805000", "165158.808000", "165158.811000", "165158.814000", "165158.817000", "165158.820000", "165158.822000", "165158.825000", "165238.750000", "165238.753000", "165238.756000", "165238.759000", "165238.762000", "165238.765000", "165238.767000", "165238.770000", "165238.773000", "165238.776000", "165238.779000", "165238.782000", "165238.785000", "165238.788000", "165238.790000", "165238.793000", "165238.796000", "165238.808000", "165238.811000", "165238.813000", "165238.816000", "165238.819000", "165238.822000", "165238.825000", "165238.828000", "165238.831000", "165238.834000", "165318.749000", "165318.752000", "165318.755000", "165318.758000", "165318.761000", "165318.764000", "165318.767000", "165318.769000", "165318.772000", "165318.775000", "165318.778000", "165318.781000", "165318.784000", "165318.787000", "165318.790000", "165318.793000", "165318.806000", "165318.808000", "165318.811000", "165318.814000", "165318.817000", "165318.820000", "165318.823000", "165318.826000", "165318.829000", "165318.832000", "165318.834000", "165358.750000", "165358.753000", "165358.756000", "165358.759000", "165358.762000", "165358.765000", "165358.768000", "165358.770000", "165358.773000", "165358.776000", "165358.779000", "165358.782000", "165358.785000", "165358.788000", "165358.791000", "165358.794000", "165358.797000", "165358.799000", "165358.802000", "165358.805000", "165358.808000", "165358.811000", "165358.814000", "165358.817000", "165358.820000", "165358.822000", "165358.825000", "165438.750000", "165438.753000", "165438.756000", "165438.759000", "165438.762000", "165438.765000", "165438.768000", "165438.771000", "165438.774000", "165438.777000", "165438.779000", "165438.782000", "165438.785000", "165438.788000", "165438.791000", "165438.794000", "165438.797000", "165438.800000", "165438.803000", "165438.805000", "165438.808000", "165438.811000", "165438.814000", "165438.817000", "165438.820000", "165438.823000", "165501.157000", "165501.161000", "165501.164000", "165501.167000", "165501.170000", "165501.172000", "165501.175000", "165501.178000", "165501.181000", "165501.184000", "165501.187000", "165501.190000", "165501.193000", "165501.196000", "165501.198000", "165501.201000"],
