{
  "AcquisitionMatrixPE": 104,
  "AcquisitionNumber": 1,
  "AcquisitionTime": "17:07:40.902500",
  "BandwidthPerPixelPhaseEncode": 17.17,
  "BaseResolution": 104,
  "BodyPartExamined": "BRAIN",
  "CoilString": "HC1-7;NC1_2",
  "ConsistencyInfo": "N4_VE11C_LATEST_20160120",
  "ConversionSoftware": "dcm2niix",
  "ConversionSoftwareVersion": "v1.0.20190902",
  "DerivedVendorReportedEchoSpacing": 0.000560011,
  "DeviceSerialNumber": "167006",
  "DwellTime": 2.1e-06,
  "EchoTime": 0.037,
  "EchoTrainLength": 104,
  "EffectiveEchoSpacing": 0.000560011,
  "FlipAngle": 52,
  "ImageComments": "Unaliased_MB4_PE3_LB",
  "ImageOrientationPatientDICOM": [0.998618, -0.0490244, 0.0189385, 0.0525101, 0.91579, -0.398209],
  "ImageType": [
    "ORIGINAL",
    "PRIMARY",
    "M",
    "MB",
    "ND",
    "MOSAIC"
],
  "ImagingFrequency": 123.259,
  "InPlanePhaseEncodingDirectionDICOM": "COL",
  "InstitutionAddress": "Chemin_Queen-Mary_4565_Montreal_District_CA_H3W_1W5",
  "InstitutionName": "IUGM",
  "InstitutionalDepartmentName": "Department",
  "MRAcquisitionType": "2D",
  "MagneticFieldStrength": 3,
  "Manufacturer": "Siemens",
  "ManufacturersModelName": "Prisma_fit",
  "Modality": "MR",
  "MultibandAccelerationFactor": 4,
  "PartialFourier": 1,
  "PatientPosition": "HFS",
  "PercentPhaseFOV": 100,
  "PhaseEncodingDirection": "j",
  "PhaseEncodingSteps": 104,
  "PhaseResolution": 1,
  "PixelBandwidth": 2290,
  "ProcedureStepDescription": "language_harrypotter",
  "ProtocolName": "func_task-harrypotter_run-4",
  "PulseSequenceDetails": "%CustomerSeq%_cmrr_mbep2d_bold",
  "ReceiveCoilActiveElements": "HC1-7;NC1,2",
  "ReceiveCoilName": "HeadNeck_64",
  "ReconMatrixPE": 104,
  "RepetitionTime": 1.49,
  "SAR": 0.0365186,
  "ScanOptions": "FS",
  "ScanningSequence": "EP",
  "SequenceName": "epfid2d1_104",
  "SequenceVariant": "SK_SS",
  "SeriesDescription": "func_task-harrypotter_run-4",
  "SeriesNumber": 15,
  "ShimSetting": [621, -7274, -8828, 413, -4, -429, 92, 23],
  "SliceThickness": 2,
  "SliceTiming": [0, 0.7825, 0.0975, 0.88, 0.195, 0.98, 0.2925, 1.0775, 0.39, 1.175, 0.49, 1.2725, 0.5875, 1.37, 0.685, 0, 0.7825, 0.0975, 0.88, 0.195, 0.98, 0.2925, 1.0775, 0.39, 1.175, 0.49, 1.2725, 0.5875, 1.37, 0.685, 0, 0.7825, 0.0975, 0.88, 0.195, 0.98, 0.2925, 1.0775, 0.39, 1.175, 0.49, 1.2725, 0.5875, 1.37, 0.685, 0, 0.7825, 0.0975, 0.88, 0.195, 0.98, 0.2925, 1.0775, 0.39, 1.175, 0.49, 1.2725, 0.5875, 1.37, 0.685],
  "SoftwareVersions": "syngo_MR_E11",
  "SpacingBetweenSlices": 2,
  "StationName": "MRC35049",
  "TaskName": "harrypotter",
  "TotalReadoutTime": 0.0576811,
  "TxRefAmp": 238.073,
  "WipMemBlock": "6e03ad3f-a998-4a90-a795-d0f835952636||Sequence: R016 ve11c/master r/e634e98; Dec 19 2017 11:00:25 by eja",
  "dcmmeta_affine": [
    [-1.9972360134124756, 0.1050202026963234, -0.004356415942311287, 98.09741973876953],
    [0.09804870188236237, 1.8315808773040771, -0.7973067164421082, -71.16266632080078],
    [0.03787709400057793, 0.7964184284210205, 1.8341981172561646, -62.40359115600586],
    [0.0, 0.0, 0.0, 1.0]
],
  "dcmmeta_reorient_transform": [
    [0.0, -1.0, 0.0, 103.0],
    [1.0, 0.0, 0.0, 0.0],
    [0.0, 0.0, 1.0, 0.0],
    [0.0, 0.0, 0.0, 1.0]
],
  "dcmmeta_shape": [104, 104, 60, 509],
  "dcmmeta_slice_dim": 2,
  "dcmmeta_version": 0.6,
  "global": {
    "const": {
      "AcquisitionMatrix": [104, 0, 0, 104],
      "AngioFlag": "N",
      "BitsAllocated": 16,
      "BitsStored": 16,
      "BodyPartExamined": "BRAIN",
      "Columns": 832,
      "EchoNumbers": 1,
      "EchoTime": 37.0,
      "EchoTrainLength": 104,
      "FlipAngle": 52.0,
      "HighBit": 15,
      "ImageOrientationPatient": [0.99861801730728, -0.0490243504706, 0.0189385472046, 0.05251010301831, 0.9157904276523, -0.3982092185038],
      "ImagePositionPatient": [-874.13577161963, -748.4958632605, 295.73655575973],
      "ImageType": [
        "ORIGINAL",
        "PRIMARY",
        "M",
        "MB",
        "ND",
        "MOSAIC"
],
      "ImagedNucleus": "1H",
      "ImagingFrequency": 123.258936,
      "InPlanePhaseEncodingDirection": "COL",
      "MRAcquisitionType": "2D",
      "MagneticFieldStrength": 3.0,
      "Manufacturer": "SIEMENS",
      "ManufacturerModelName": "Prisma_fit",
      "Modality": "MR",
      "NumberOfAverages": 1.0,
      "NumberOfPhaseEncodingSteps": 104,
      "PercentPhaseFieldOfView": 100.0,
      "PercentSampling": 100.0,
      "PerformedProcedureStepStartTime": "160816.148000",
      "PhotometricInterpretation": "MONOCHROME2",
      "PixelBandwidth": 2290.0,
      "PixelRepresentation": 0,
      "PixelSpacing": [2.0, 2.0],
      "ProtocolName": "func_task-harrypotter_run-4",
      "RepetitionTime": 1490.0,
      "Rows": 832,
      "SAR": 0.03651864124842,
      "SamplesPerPixel": 1,
      "ScanOptions": "FS",
      "ScanningSequence": "EP",
      "SequenceName": "epfid2d1_104",
      "SequenceVariant": [
        "SK",
        "SS"
],
      "SeriesDescription": "func_task-harrypotter_run-4",
      "SeriesNumber": 15,
      "SeriesTime": "170857.981000",
      "SliceLocation": -29.07471679354,
      "SliceThickness": 2.0,
      "SmallestImagePixelValue": 0,
      "SoftwareVersions": "syngo MR E11",
      "SpacingBetweenSlices": 1.9999999464603,
      "SpecificCharacterSet": "ISO_IR 100",
      "StudyID": "1",
      "StudyTime": "160816.036000",
      "TransmitCoilName": "Body",
      "VariableFlipAngleFlag": "N",
      "WindowCenterWidthExplanation": "Algo1",
      "dBdt": 0.0},
    "slices": {}
  },
  "time": {
    "samples": {
      "AcquisitionNumber": [1, 2, 3, 4, 5, 6, 7, 8, 9, 10, 11, 12, 13, 14, 15, 16, 17, 18, 19, 20, 21, 22, 23, 24, 25, 26, 27, 28, 29, 30, 31, 32, 33, 34, 35, 36, 37, 38, 39, 40, 41, 42, 43, 44, 45, 46, 47, 48, 49, 50, 51, 52, 53, 54, 55, 56, 57, 58, 59, 60, 61, 62, 63, 64, 65, 66, 67, 68, 69, 70, 71, 72, 73, 74, 75, 76, 77, 78, 79, 80, 81, 82, 83, 84, 85, 86, 87, 88, 89, 90, 91, 92, 93, 94, 95, 96, 97, 98, 99, 100, 101, 102, 103, 104, 105, 106, 107, 108, 109, 110, 111, 112, 113, 114, 115, 116, 117, 118, 119, 120, 121, 122, 123, 124, 125, 126, 127, 128, 129, 130, 131, 132, 133, 134, 135, 136, 137, 138, 139, 140, 141, 142, 143, 144, 145, 146, 147, 148, 149, 150, 151, 152, 153, 154, 155, 156, 157, 158, 159, 160, 161, 162, 163, 164, 165, 166, 167, 168, 169, 170, 171, 172, 173, 174, 175, 176, 177, 178, 179, 180, 181, 182, 183, 184, 185, 186, 187, 188, 189, 190, 191, 192, 193, 194, 195, 196, 197, 198, 199, 200, 201, 202, 203, 204, 205, 206, 207, 208, 209, 210, 211, 212, 213, 214, 215, 216, 217, 218, 219, 220, 221, 222, 223, 224, 225, 226, 227, 228, 229, 230, 231, 232, 233, 234, 235, 236, 237, 238, 239, 240, 241, 242, 243, 244, 245, 246, 247, 248, 249, 250, 251, 252, 253, 254, 255, 256, 257, 258, 259, 260, 261, 262, 263, 264, 265, 266, 267, 268, 269, 270, 271, 272, 273, 274, 275, 276, 277, 278, 279, 280, 281, 282, 283, 284, 285, 286, 287, 288, 289, 290, 291, 292, 293, 294, 295, 296, 297, 298, 299, 300, 301, 302, 303, 304, 305, 306, 307, 308, 309, 310, 311, 312, 313, 314, 315, 316, 317, 318, 319, 320, 321, 322, 323, 324, 325, 326, 327, 328, 329, 330, 331, 332, 333, 334, 335, 336, 337, 338, 339, 340, 341, 342, 343, 344, 345, 346, 347, 348, 349, 350, 351, 352, 353, 354, 355, 356, 357, 358, 359, 360, 361, 362, 363, 364, 365, 366, 367, 368, 369, 370, 371, 372, 373, 374, 375, 376, 377, 378, 379, 380, 381, 382, 383, 384, 385, 386, 387, 388, 389, 390, 391, 392, 393, 394, 395, 396, 397, 398, 399, 400, 401, 402, 403, 404, 405, 406, 407, 408, 409, 410, 411, 412, 413, 414, 415, 416, 417, 418, 419, 420, 421, 422, 423, 424, 425, 426, 427, 428, 429, 430, 431, 432, 433, 434, 435, 436, 437, 438, 439, 440, 441, 442, 443, 444, 445, 446, 447, 448, 449, 450, 451, 452, 453, 454, 455, 456, 457, 458, 459, 460, 461, 462, 463, 464, 465, 466, 467, 468, 469, 470, 471, 472, 473, 474, 475, 476, 477, 478, 479, 480, 481, 482, 483, 484, 485, 486, 487, 488, 489, 490, 491, 492, 493, 494, 495, 496, 497, 498, 499, 500, 501, 502, 503, 504, 505, 506, 507, 508, 509],
      "AcquisitionTime": ["170740.902500", "170742.392500", "170743.882500", "170745.372500", "170746.862500", "170748.352500", "170749.842500", "170751.332500", "170752.822500", "170754.312500", "170755.802500", "170757.292500", "170758.782500", "170800.272500", "170801.762500", "170803.252500", "170804.742500", "170806.232500", "170807.722500", "170809.212500", "170810.702500", "170812.192500", "170813.682500", "170815.172500", "170816.662500", "170818.152500", "170819.642500", "170821.132500", "170822.622500", "170824.112500", "170825.602500", "170827.092500", "170828.582500", "170830.072500", "170831.562500", "170833.052500", "170834.542500", "170836.032500", "170837.522500", "170839.012500", "170840.502500", "170841.992500", "170843.482500", "170844.972500", "170846.462500", "170847.952500", "170849.442500", "170850.932500", "170852.422500", "170853.912500", "170855.402500", "170856.892500", "170858.382500", "170859.872500", "170901.362500", "170902.852500", "170904.342500", "170905.832500", "170907.322500", "170908.812500", "170910.302500", "170911.792500", "170913.282500", "170914.772500", "170916.262500", "170917.752500", "170919.242500", "170920.732500", "170922.222500", "170923.712500", "170925.202500", "170926.692500", "170928.182500", "170929.672500", "170931.162500", "170932.652500", "170934.142500", "170935.632500", "170937.122500", "170938.612500", "170940.102500", "170941.592500", "170943.082500", "170944.572500", "170946.062500", "170947.552500", "170949.042500", "170950.532500", "170952.022500", "170953.512500", "170955.002500", "170956.492500", "170957.982500", "170959.472500", "171000.962500", "171002.452500", "171003.942500", "171005.432500", "171006.922500", "171008.412500", "171009.902500", "171011.392500", "171012.882500", "171014.372500", "171015.862500", "171017.352500", "171018.842500", "171020.332500", "171021.822500", "171023.312500", "171024.802500", "171026.292500", "171027.782500", "171029.272500", "171030.762500", "171032.252500", "171033.742500", "171035.232500", "171036.722500", "171038.212500", "171039.702500", "171041.192500", "171042.682500", "171044.172500", "171045.662500", "171047.152500", "171048.642500", "171050.132500", "171051.622500", "171053.112500", "171054.602500", "171056.092500", "171057.582500", "171059.072500", "171100.562500", "171102.052500", "171103.542500", "171105.032500", "171106.522500", "171108.012500", "171109.502500", "171110.992500", "171112.482500", "171113.972500", "171115.462500", "171116.952500", "171118.442500", "171119.932500", "171121.422500", "171122.912500", "171124.402500", "171125.892500", "171127.382500", "171128.872500", "171130.362500", "171131.852500", "171133.342500", "171134.832500", "171136.322500", "171137.812500", "171139.302500", "171140.792500", "171142.282500", "171143.772500", "171145.262500", "171146.752500", "171148.242500", "171149.732500", "171151.222500", "171152.712500", "171154.202500", "171155.692500", "171157.182500", "171158.672500", "171200.162500", "171201.652500", "171203.142500", "171204.632500", "171206.122500", "171207.612500", "171209.102500", "171210.592500", "171212.082500", "171213.572500", "171215.062500", "171216.552500", "171218.042500", "171219.532500", "171221.022500", "171222.512500", "171224.002500", "171225.492500", "171226.982500", "171228.472500", "171229.962500", "171231.452500", "171232.942500", "171234.432500", "171235.922500", "171237.412500", "171238.902500", "171240.392500", "171241.882500", "171243.372500", "171244.862500", "171246.352500", "171247.842500", "171249.332500", "171250.822500", "171252.312500", "171253.802500", "171255.292500", "171256.782500", "171258.272500", "171259.762500", "171301.252500", "171302.742500", "171304.232500", "171305.722500", "171307.212500", "171308.702500", "171310.192500", "171311.682500", "171313.172500", "171314.662500", "171316.152500", "171317.642500", "171319.132500", "171320.622500", "171322.112500", "171323.602500", "171325.092500", "171326.582500", "171328.072500", "171329.562500", "171331.052500", "171332.542500", "171334.032500", "171335.522500", "171337.012500", "171338.502500", "171339.992500", "171341.482500", "171342.972500", "171344.462500", "171345.952500", "171347.442500", "171348.932500", "171350.422500", "171351.912500", "171353.402500", "171354.892500", "171356.382500", "171357.872500", "171359.362500", "171400.852500", "171402.342500", "171403.832500", "171405.322500", "171406.812500", "171408.302500", "171409.792500", "171411.282500", "171412.772500", "171414.262500", "171415.752500", "171417.242500", "171418.732500", "171420.222500", "171421.712500", "171423.202500", "171424.692500", "171426.182500", "171427.672500", "171429.162500", "171430.652500", "171432.142500", "171433.632500", "171435.122500", "171436.612500", "171438.102500", "171439.592500", "171441.082500", "171442.572500", "171444.062500", "171445.552500", "171447.042500", "171448.532500", "171450.022500", "171451.512500", "171453.002500", "171454.492500", "171455.982500", "171457.472500", "171458.962500", "171500.452500", "171501.942500", "171503.432500", "171504.922500", "171506.412500", "171507.902500", "171509.392500", "171510.882500", "171512.372500", "171513.862500", "171515.352500", "171516.842500", "171518.332500", "171519.822500", "171521.312500", "171522.802500", "171524.292500", "171525.782500", "171527.272500", "171528.762500", "171530.252500", "171531.742500", "171533.232500", "171534.722500", "171536.212500", "171537.702500", "171539.192500", "171540.682500", "171542.172500", "171543.662500", "171545.152500", "171546.642500", "171548.132500", "171549.622500", "171551.112500", "171552.602500", "171554.092500", "171555.582500", "171557.072500", "171558.562500", "171600.052500", "171601.542500", "171603.032500", "171604.522500", "171606.012500", "171607.502500", "171608.992500", "171610.482500", "171611.972500", "171613.462500", "171614.952500", "171616.442500", "171617.932500", "171619.422500", "171620.912500", "171622.402500", "171623.892500", "171625.382500", "171626.872500", "171628.362500", "171629.852500", "171631.342500", "171632.832500", "171634.322500", "171635.812500", "171637.302500", "171638.792500", "171640.282500", "171641.772500", "171643.262500", "171644.752500", "171646.242500", "171647.732500", "171649.222500", "171650.712500", "171652.202500", "171653.692500", "171655.182500", "171656.672500", "171658.162500", "171659.652500", "171701.142500", "171702.632500", "171704.122500", "171705.612500", "171707.102500", "171708.592500", "171710.082500", "171711.572500", "171713.062500", "171714.552500", "171716.042500", "171717.532500", "171719.022500", "171720.512500", "171722.002500", "171723.492500", "171724.982500", "171726.472500", "171727.962500", "171729.452500", "171730.942500", "171732.432500", "171733.922500", "171735.412500", "171736.902500", "171738.392500", "171739.882500", "171741.372500", "171742.862500", "171744.352500", "171745.842500", "171747.332500", "171748.822500", "171750.312500", "171751.802500", "171753.292500", "171754.782500", "171756.272500", "171757.762500", "171759.252500", "171800.742500", "171802.232500", "171803.722500", "171805.212500", "171806.702500", "171808.192500", "171809.682500", "171811.172500", "171812.662500", "171814.152500", "171815.642500", "171817.132500", "171818.622500", "171820.112500", "171821.602500", "171823.092500", "171824.582500", "171826.072500", "171827.562500", "171829.052500", "171830.542500", "171832.032500", "171833.522500", "171835.012500", "171836.502500", "171837.992500", "171839.482500", "171840.972500", "171842.462500", "171843.952500", "171845.442500", "171846.932500", "171848.422500", "171849.912500", "171851.402500", "171852.892500", "171854.382500", "171855.872500", "171857.362500", "171858.852500", "171900.342500", "171901.832500", "171903.322500", "171904.812500", "171906.302500", "171907.792500", "171909.282500", "171910.772500", "171912.262500", "171913.752500", "171915.242500", "171916.732500", "171918.222500", "171919.712500", "171921.202500", "171922.692500", "171924.182500", "171925.672500", "171927.162500", "171928.652500", "171930.142500", "171931.632500", "171933.122500", "171934.612500", "171936.102500", "171937.592500", "171939.082500", "171940.572500", "171942.062500", "171943.552500", "171945.042500", "171946.532500", "171948.022500", "171949.512500", "171951.002500", "171952.492500", "171953.982500", "171955.472500", "171956.962500", "171958.452500", "171959.942500", "172001.432500", "172002.922500", "172004.412500", "172005.902500", "172007.392500", "172008.882500", "172010.372500", "172011.862500", "172013.352500", "172014.842500", "172016.332500", "172017.822500"],
      "ContentTime": ["170857.983000", "170857.987000", "170857.989000", "170857.992000", "170857.995000", "170857.998000", "170858.004000", "170858.007000", "170858.010000", "170858.013000", "170858.016000", "170858.019000", "170858.032000", "170858.035000", "170858.038000", "170858.041000", "170858.044000", "170858.047000", "170858.049000", "170858.052000", "170858.055000", "170917.947000", "170917.950000", "170917.953000", "170917.964000", "170917.967000", "170917.970000", "170917.973000", "170917.976000", "170917.979000", "170917.982000", "170917.985000", "170917.987000", "170917.990000", "170917.993000", "170917.996000", "170918.000000", "170918.004000", "170918.007000", "170918.010000", "170918.013000", "170937.947000", "170937.950000", "170937.953000", "170937.955000", "170937.959000", "170937.961000", "170937.964000", "170937.967000", "170937.971000", "170937.973000", "170937.976000", "170937.979000", "170937.982000", "170937.985000", "170937.988000", "170937.991000", "170937.994000", "170937.997000", "170937.999000", "170938.002000", "170938.005000", "170957.946000", "170957.949000", "170957.952000", "170957.955000", "170957.958000", "170957.960000", "170957.963000", "170957.966000", "170957.969000", "170957.972000", "170957.975000", "170957.978000", "170957.981000", "170957.984000", "170957.986000", "170957.989000", "170957.992000", "170957.995000", "170957.998000", "170958.002000", "171017.946000", "171017.949000", "171017.952000", "171017.955000", "171017.958000", "171017.960000", "171017.963000", "171017.966000", "171017.969000", "171017.972000", "171017.975000", "171017.978000", "171017.981000", "171017.983000", "171017.986000", "171017.989000", "171017.992000", "171017.995000", "171017.998000", "171018.002000", "171037.946000", "171037.949000", "171037.952000", "171037.955000", "171037.958000", "171037.961000", "171037.963000", "171037.966000", "171037.969000", "171037.972000", "171037.975000", "171037.978000", "171037.981000", "171037.984000", "171037.987000", "171037.990000", "171117.946000", "171117.949000", "171117.952000", "171117.955000", "171117.958000", "171117.961000", "171117.964000", "171117.967000", "171117.969000", "171117.972000", "171117.975000", "171117.978000", "171117.981000", "171117.984000", "171117.987000", "171117.990000", "171117.993000", "171117.996000", "171117.998000", "171118.002000", "171118.005000", "171118.008000", "171118.011000", "171118.014000", "171118.017000", "171118.020000", "171118.022000", "171157.947000", "171157.950000", "171157.953000", "171157.956000", "171157.959000", "171157.961000", "171157.964000", "171157.967000", "171157.970000", "171157.973000", "171157.976000", "171157.979000", "171157.982000", "171157.985000", "171157.987000", "171157.990000", "171157.993000", "171157.996000", "171158.000000", "171158.003000", "171158.006000", "171158.009000", "171158.011000", "171158.014000", "171158.017000", "171158.020000", "171158.023000", "171237.946000", "171237.949000", "171237.952000", "171237.955000", "171237.958000", "171237.961000", "171237.963000", "171237.967000", "171237.969000", "171237.972000", "171237.975000", "171237.978000", "171237.981000", "171237.984000", "171237.987000", "171237.990000", "171237.993000", "171237.995000", "171237.998000", "171238.002000", "171238.005000", "171238.007000", "171238.010000", "171238.013000", "171238.016000", "171238.019000", "171238.022000", "171317.947000", "171317.950000", "171317.953000", "171317.956000", "171317.959000", "171317.962000", "171317.965000", "171317.968000", "171317.971000", "171317.974000", "171317.977000", "171317.980000", "171317.983000", "171317.985000", "171317.988000", "171317.991000", "171317.994000", "171317.997000", "171318.001000", "171318.004000", "171318.007000", "171318.010000", "171318.027000", "171318.030000", "171318.033000", "171318.036000", "171357.947000", "171357.950000", "171357.953000", "171357.956000", "171357.959000", "171357.962000", "171357.964000", "171357.967000", "171357.970000", "171357.973000", "171357.976000", "171357.979000", "171357.982000", "171357.985000", "171357.988000", "171357.990000", "171357.993000", "171358.004000", "171358.007000", "171358.010000", "171358.013000", "171358.016000", "171358.019000", "171358.021000", "171358.024000", "171358.027000", "171358.030000", "171437.946000", "171437.949000", "171437.952000", "171437.960000", "171437.963000", "171437.966000", "171437.969000", "171437.972000", "171437.975000", "171437.978000", "171437.981000", "171437.984000", "171437.987000", "171437.990000", "171437.992000", "171437.995000", "171437.998000", "171438.001000", "171438.004000", "171438.007000", "171438.010000", "171438.013000", "171438.016000", "171438.019000", "171438.021000", "171438.024000", "171438.027000", "171517.946000", "171517.949000", "171517.952000", "171517.955000", "171517.958000", "171517.961000", "171517.964000", "171517.967000", "171517.970000", "171517.972000", "171517.976000", "171517.978000", "171517.981000", "171517.984000", "171517.987000", "171517.990000", "171517.993000", "171517.995000", "171518.000000", "171518.002000", "171518.005000", "171518.008000", "171518.011000", "171518.014000", "171518.017000", "171518.020000", "171518.023000", "171557.946000", "171557.949000", "171557.952000", "171557.955000", "171557.958000", "171557.961000", "171557.964000", "171557.967000", "171557.970000", "171557.973000", "171557.975000", "171557.978000", "171557.981000", "171557.984000", "171557.987000", "171557.990000", "171557.993000", "171557.996000", "171557.999000", "171558.002000", "171558.004000", "171558.007000", "171558.016000", "171558.019000", "171558.022000", "171558.025000", "171558.028000", "171637.946000", "171637.949000", "171637.952000", "171637.955000", "171637.958000", "171637.961000", "171637.964000", "171637.966000", "171637.969000", "171637.972000", "171637.975000", "171637.978000", "171637.981000", "171637.984000", "171637.987000", "171637.990000", "171637.992000", "171637.995000", "171637.998000", "171638.002000", "171638.005000", "171638.008000", "171638.011000", "171638.014000", "171638.017000", "171638.020000", "171638.022000", "171717.946000", "171717.949000", "171717.952000", "171717.955000", "171717.958000", "171717.961000", "171717.965000", "171717.968000", "171717.971000", "171717.974000", "171717.977000", "171717.980000", "171717.983000", "171717.986000", "171717.989000", "171717.992000", "171717.995000", "171717.998000", "171718.001000", "171718.004000", "171718.007000", "171718.009000", "171718.012000", "171718.015000", "171718.018000", "171718.021000", "171757.946000", "171757.949000", "171757.952000", "171757.955000", "171757.958000", "171757.961000", "171757.964000", "171757.967000", "171757.969000", "171757.972000", "171757.975000", "171757.978000", "171757.981000", "171757.984000", "171757.987000", "171757.990000", "171757.993000", "171757.996000", "171757.998000", "171758.010000", "171758.013000", "171758.016000", "171758.019000", "171758.022000", "171758.025000", "171758.028000", "171758.031000", "171837.947000", "171837.950000", "171837.953000", "171837.956000", "171837.959000", "171837.962000", "171837.965000", "171837.968000", "171837.971000", "171837.973000", "171837.976000", "171837.979000", "171837.982000", "171837.985000", "171837.988000", "171837.991000", "171837.994000", "171837.997000", "171838.000000", "171838.003000", "171838.006000", "171838.009000", "171838.012000", "171838.014000", "171838.017000", "171838.020000", "171838.023000", "171917.946000", "171917.949000", "171917.952000", "171917.955000", "171917.958000", "171917.961000", "171917.964000", "171917.967000", "171917.970000", "171917.972000", "171917.975000", "171917.978000", "171917.981000", "171917.984000", "171917.987000", "171917.990000", "171917.993000", "171917.996000", "171918.000000", "171918.003000", "171918.006000", "171918.008000", "171918.011000", "171918.014000", "171918.017000", "171918.020000", "171918.023000", "171957.946000", "171957.949000", "171957.952000", "171957.955000", "171957.958000", "171957.961000", "171957.964000", "171957.967000", "171957.970000", "171957.972000", "171957.976000", "171957.978000", "171957.981000", "171957.984000", "171957.987000", "171957.990000", "171957.993000", "171957.996000", "171958.000000", "171958.003000", "171958.006000", "171958.008000", "171958.011000", "171958.014000", "171958.017000", "171958.020000", "171958.023000", "172019.802000", "172019.806000", "172019.809000", "172019.812000", "172019.815000", "172019.818000", "172019.821000", "172019.824000", "172019.827000", "172019.830000", "172019.833000", "172019.836000", "172019.839000", "172019.842000", "172019.845000"],
