{
  "AcquisitionMatrixPE": 104,
  "AcquisitionNumber": 1,
  "AcquisitionTime": "17:37:15.072500",
  "BandwidthPerPixelPhaseEncode": 17.17,
  "BaseResolution": 104,
  "BodyPartExamined": "BRAIN",
  "CoilString": "HC1-7;NC1_2",
  "ConsistencyInfo": "N4_VE11C_LATEST_20160120",
  "ConversionSoftware": "dcm2niix",
  "ConversionSoftwareVersion": "v1.0.20190902",
  "DerivedVendorReportedEchoSpacing": 0.000560011,
  "DeviceSerialNumber": "167006",
  "DwellTime": 2.1e-06,
  "EchoTime": 0.037,
  "EchoTrainLength": 104,
  "EffectiveEchoSpacing": 0.000560011,
  "FlipAngle": 52,
  "ImageComments": "Unaliased_MB4_PE3_LB",
  "ImageOrientationPatientDICOM": [0.998618, -0.0490244, 0.0189385, 0.0525101, 0.91579, -0.398209],
  "ImageType": [
    "ORIGINAL",
    "PRIMARY",
    "M",
    "MB",
    "ND",
    "MOSAIC"
],
  "ImagingFrequency": 123.259,
  "InPlanePhaseEncodingDirectionDICOM": "COL",
  "InstitutionAddress": "Chemin_Queen-Mary_4565_Montreal_District_CA_H3W_1W5",
  "InstitutionName": "IUGM",
  "InstitutionalDepartmentName": "Department",
  "MRAcquisitionType": "2D",
  "MagneticFieldStrength": 3,
  "Manufacturer": "Siemens",
  "ManufacturersModelName": "Prisma_fit",
  "Modality": "MR",
  "MultibandAccelerationFactor": 4,
  "PartialFourier": 1,
  "PatientPosition": "HFS",
  "PercentPhaseFOV": 100,
  "PhaseEncodingDirection": "j",
  "PhaseEncodingSteps": 104,
  "PhaseResolution": 1,
  "PixelBandwidth": 2290,
  "ProcedureStepDescription": "language_harrypotter",
  "ProtocolName": "func_task-harrypotter_run-6",
  "PulseSequenceDetails": "%CustomerSeq%_cmrr_mbep2d_bold",
  "ReceiveCoilActiveElements": "HC1-7;NC1,2",
  "ReceiveCoilName": "HeadNeck_64",
  "ReconMatrixPE": 104,
  "RepetitionTime": 1.49,
  "SAR": 0.0365011,
  "ScanOptions": "FS",
  "ScanningSequence": "EP",
  "SequenceName": "epfid2d1_104",
  "SequenceVariant": "SK_SS",
  "SeriesDescription": "func_task-harrypotter_run-6",
  "SeriesNumber": 19,
  "ShimSetting": [621, -7274, -8828, 413, -4, -429, 92, 23],
  "SliceThickness": 2,
  "SliceTiming": [0, 0.7825, 0.0975, 0.8825, 0.195, 0.98, 0.2925, 1.0775, 0.3925, 1.175, 0.49, 1.2725, 0.5875, 1.37, 0.685, 0, 0.7825, 0.0975, 0.8825, 0.195, 0.98, 0.2925, 1.0775, 0.3925, 1.175, 0.49, 1.2725, 0.5875, 1.37, 0.685, 0, 0.7825, 0.0975, 0.8825, 0.195, 0.98, 0.2925, 1.0775, 0.3925, 1.175, 0.49, 1.2725, 0.5875, 1.37, 0.685, 0, 0.7825, 0.0975, 0.8825, 0.195, 0.98, 0.2925, 1.0775, 0.3925, 1.175, 0.49, 1.2725, 0.5875, 1.37, 0.685],
  "SoftwareVersions": "syngo_MR_E11",
  "SpacingBetweenSlices": 2,
  "StationName": "MRC35049",
  "TaskName": "harrypotter",
  "TotalReadoutTime": 0.0576811,
  "TxRefAmp": 238.073,
  "WipMemBlock": "34fed788-3d60-45fe-90d4-0b3bee9d62ba||Sequence: R016 ve11c/master r/e634e98; Dec 19 2017 11:00:25 by eja",
  "dcmmeta_affine": [
    [-1.9972360134124756, 0.1050202026963234, -0.004356415942311287, 98.09741973876953],
    [0.09804870188236237, 1.8315808773040771, -0.7973067164421082, -71.16266632080078],
    [0.03787709400057793, 0.7964184284210205, 1.8341981172561646, -62.40359115600586],
    [0.0, 0.0, 0.0, 1.0]
],
  "dcmmeta_reorient_transform": [
    [0.0, -1.0, 0.0, 103.0],
    [1.0, 0.0, 0.0, 0.0],
    [0.0, 0.0, 1.0, 0.0],
    [0.0, 0.0, 0.0, 1.0]
],
  "dcmmeta_shape": [104, 104, 60, 453],
  "dcmmeta_slice_dim": 2,
  "dcmmeta_version": 0.6,
  "global": {
    "const": {
      "AcquisitionMatrix": [104, 0, 0, 104],
      "AngioFlag": "N",
      "BitsAllocated": 16,
      "BitsStored": 16,
      "BodyPartExamined": "BRAIN",
      "Columns": 832,
      "EchoNumbers": 1,
      "EchoTime": 37.0,
      "EchoTrainLength": 104,
      "FlipAngle": 52.0,
      "HighBit": 15,
      "ImageOrientationPatient": [0.99861801730728, -0.0490243504706, 0.0189385472046, 0.05251010301831, 0.9157904276523, -0.3982092185038],
      "ImagePositionPatient": [-874.13577161963, -748.4958632605, 295.73655575973],
      "ImageType": [
        "ORIGINAL",
        "PRIMARY",
        "M",
        "MB",
        "ND",
        "MOSAIC"
],
      "ImagedNucleus": "1H",
      "ImagingFrequency": 123.258945,
      "InPlanePhaseEncodingDirection": "COL",
      "MRAcquisitionType": "2D",
      "MagneticFieldStrength": 3.0,
      "Manufacturer": "SIEMENS",
      "ManufacturerModelName": "Prisma_fit",
      "Modality": "MR",
      "NumberOfAverages": 1.0,
      "NumberOfPhaseEncodingSteps": 104,
      "PercentPhaseFieldOfView": 100.0,
      "PercentSampling": 100.0,
      "PerformedProcedureStepStartTime": "160816.148000",
      "PhotometricInterpretation": "MONOCHROME2",
      "PixelBandwidth": 2290.0,
      "PixelRepresentation": 0,
      "PixelSpacing": [2.0, 2.0],
      "ProtocolName": "func_task-harrypotter_run-6",
      "RepetitionTime": 1490.0,
      "Rows": 832,
      "SAR": 0.03650111485434,
      "SamplesPerPixel": 1,
      "ScanOptions": "FS",
      "ScanningSequence": "EP",
      "SequenceName": "epfid2d1_104",
      "SequenceVariant": [
        "SK",
        "SS"
],
      "SeriesDescription": "func_task-harrypotter_run-6",
      "SeriesNumber": 19,
      "SeriesTime": "173844.249000",
      "SliceLocation": -29.07471679354,
      "SliceThickness": 2.0,
      "SmallestImagePixelValue": 0,
      "SoftwareVersions": "syngo MR E11",
      "SpacingBetweenSlices": 1.9999999464603,
      "SpecificCharacterSet": "ISO_IR 100",
      "StudyID": "1",
      "StudyTime": "160816.036000",
      "TransmitCoilName": "Body",
      "VariableFlipAngleFlag": "N",
      "WindowCenterWidthExplanation": "Algo1",
      "dBdt": 0.0},
    "slices": {}
  },
  "time": {
    "samples": {
      "AcquisitionNumber": [1, 2, 3, 4, 5, 6, 7, 8, 9, 10, 11, 12, 13, 14, 15, 16, 17, 18, 19, 20, 21, 22, 23, 24, 25, 26, 27, 28, 29, 30, 31, 32, 33, 34, 35, 36, 37, 38, 39, 40, 41, 42, 43, 44, 45, 46, 47, 48, 49, 50, 51, 52, 53, 54, 55, 56, 57, 58, 59, 60, 61, 62, 63, 64, 65, 66, 67, 68, 69, 70, 71, 72, 73, 74, 75, 76, 77, 78, 79, 80, 81, 82, 83, 84, 85, 86, 87, 88, 89, 90, 91, 92, 93, 94, 95, 96, 97, 98, 99, 100, 101, 102, 103, 104, 105, 106, 107, 108, 109, 110, 111, 112, 113, 114, 115, 116, 117, 118, 119, 120, 121, 122, 123, 124, 125, 126, 127, 128, 129, 130, 131, 132, 133, 134, 135, 136, 137, 138, 139, 140, 141, 142, 143, 144, 145, 146, 147, 148, 149, 150, 151, 152, 153, 154, 155, 156, 157, 158, 159, 160, 161, 162, 163, 164, 165, 166, 167, 168, 169, 170, 171, 172, 173, 174, 175, 176, 177, 178, 179, 180, 181, 182, 183, 184, 185, 186, 187, 188, 189, 190, 191, 192, 193, 194, 195, 196, 197, 198, 199, 200, 201, 202, 203, 204, 205, 206, 207, 208, 209, 210, 211, 212, 213, 214, 215, 216, 217, 218, 219, 220, 221, 222, 223, 224, 225, 226, 227, 228, 229, 230, 231, 232, 233, 234, 235, 236, 237, 238, 239, 240, 241, 242, 243, 244, 245, 246, 247, 248, 249, 250, 251, 252, 253, 254, 255, 256, 257, 258, 259, 260, 261, 262, 263, 264, 265, 266, 267, 268, 269, 270, 271, 272, 273, 274, 275, 276, 277, 278, 279, 280, 281, 282, 283, 284, 285, 286, 287, 288, 289, 290, 291, 292, 293, 294, 295, 296, 297, 298, 299, 300, 301, 302, 303, 304, 305, 306, 307, 308, 309, 310, 311, 312, 313, 314, 315, 316, 317, 318, 319, 320, 321, 322, 323, 324, 325, 326, 327, 328, 329, 330, 331, 332, 333, 334, 335, 336, 337, 338, 339, 340, 341, 342, 343, 344, 345, 346, 347, 348, 349, 350, 351, 352, 353, 354, 355, 356, 357, 358, 359, 360, 361, 362, 363, 364, 365, 366, 367, 368, 369, 370, 371, 372, 373, 374, 375, 376, 377, 378, 379, 380, 381, 382, 383, 384, 385, 386, 387, 388, 389, 390, 391, 392, 393, 394, 395, 396, 397, 398, 399, 400, 401, 402, 403, 404, 405, 406, 407, 408, 409, 410, 411, 412, 413, 414, 415, 416, 417, 418, 419, 420, 421, 422, 423, 424, 425, 426, 427, 428, 429, 430, 431, 432, 433, 434, 435, 436, 437, 438, 439, 440, 441, 442, 443, 444, 445, 446, 447, 448, 449, 450, 451, 452, 453],
      "AcquisitionTime": ["173715.072500", "173716.562500", "173718.052500", "173719.542500", "173721.032500", "173722.522500", "173724.012500", "173725.502500", "173726.992500", "173728.482500", "173729.972500", "173731.462500", "173732.952500", "173734.442500", "173735.932500", "173737.422500", "173738.912500", "173740.402500", "173741.892500", "173743.382500", "173744.872500", "173746.362500", "173747.852500", "173749.342500", "173750.832500", "173752.322500", "173753.812500", "173755.302500", "173756.792500", "173758.282500", "173759.772500", "173801.262500", "173802.752500", "173804.242500", "173805.732500", "173807.222500", "173808.712500", "173810.202500", "173811.692500", "173813.182500", "173814.672500", "173816.162500", "173817.652500", "173819.142500", "173820.632500", "173822.122500", "173823.612500", "173825.102500", "173826.592500", "173828.082500", "173829.572500", "173831.062500", "173832.552500", "173834.042500", "173835.532500", "173837.022500", "173838.512500", "173840.002500", "173841.492500", "173842.982500", "173844.472500", "173845.962500", "173847.452500", "173848.942500", "173850.432500", "173851.922500", "173853.412500", "173854.902500", "173856.392500", "173857.882500", "173859.372500", "173900.862500", "173902.352500", "173903.842500", "173905.332500", "173906.822500", "173908.312500", "173909.802500", "173911.292500", "173912.782500", "173914.272500", "173915.762500", "173917.252500", "173918.742500", "173920.232500", "173921.722500", "173923.212500", "173924.702500", "173926.192500", "173927.682500", "173929.172500", "173930.662500", "173932.152500", "173933.642500", "173935.132500", "173936.622500", "173938.112500", "173939.602500", "173941.092500", "173942.582500", "173944.072500", "173945.562500", "173947.052500", "173948.542500", "173950.032500", "173951.522500", "173953.012500", "173954.502500", "173955.992500", "173957.482500", "173958.972500", "174000.462500", "174001.952500", "174003.442500", "174004.932500", "174006.422500", "174007.912500", "174009.402500", "174010.892500", "174012.382500", "174013.872500", "174015.362500", "174016.852500", "174018.342500", "174019.832500", "174021.322500", "174022.812500", "174024.302500", "174025.792500", "174027.282500", "174028.772500", "174030.262500", "174031.752500", "174033.242500", "174034.732500", "174036.222500", "174037.712500", "174039.202500", "174040.692500", "174042.182500", "174043.672500", "174045.162500", "174046.652500", "174048.142500", "174049.632500", "174051.122500", "174052.612500", "174054.102500", "174055.592500", "174057.082500", "174058.572500", "174100.062500", "174101.552500", "174103.042500", "174104.532500", "174106.022500", "174107.512500", "174109.002500", "174110.492500", "174111.982500", "174113.472500", "174114.962500", "174116.452500", "174117.942500", "174119.432500", "174120.922500", "174122.412500", "174123.902500", "174125.392500", "174126.882500", "174128.372500", "174129.862500", "174131.352500", "174132.842500", "174134.332500", "174135.822500", "174137.312500", "174138.802500", "174140.292500", "174141.782500", "174143.272500", "174144.762500", "174146.252500", "174147.742500", "174149.232500", "174150.722500", "174152.212500", "174153.702500", "174155.192500", "174156.682500", "174158.172500", "174159.662500", "174201.152500", "174202.642500", "174204.132500", "174205.622500", "174207.112500", "174208.602500", "174210.092500", "174211.582500", "174213.072500", "174214.562500", "174216.052500", "174217.542500", "174219.032500", "174220.522500", "174222.012500", "174223.502500", "174224.992500", "174226.482500", "174227.972500", "174229.462500", "174230.952500", "174232.442500", "174233.932500", "174235.422500", "174236.912500", "174238.402500", "174239.892500", "174241.382500", "174242.872500", "174244.362500", "174245.852500", "174247.342500", "174248.832500", "174250.322500", "174251.812500", "174253.302500", "174254.792500", "174256.282500", "174257.772500", "174259.262500", "174300.752500", "174302.242500", "174303.732500", "174305.222500", "174306.712500", "174308.202500", "174309.692500", "174311.182500", "174312.672500", "174314.162500", "174315.652500", "174317.142500", "174318.632500", "174320.122500", "174321.612500", "174323.102500", "174324.592500", "174326.082500", "174327.572500", "174329.062500", "174330.552500", "174332.042500", "174333.532500", "174335.022500", "174336.512500", "174338.002500", "174339.492500", "174340.982500", "174342.472500", "174343.962500", "174345.452500", "174346.942500", "174348.432500", "174349.922500", "174351.412500", "174352.902500", "174354.392500", "174355.882500", "174357.372500", "174358.862500", "174400.352500", "174401.842500", "174403.332500", "174404.822500", "174406.312500", "174407.802500", "174409.292500", "174410.782500", "174412.272500", "174413.762500", "174415.252500", "174416.742500", "174418.232500", "174419.722500", "174421.212500", "174422.702500", "174424.192500", "174425.682500", "174427.172500", "174428.662500", "174430.152500", "174431.642500", "174433.132500", "174434.622500", "174436.112500", "174437.602500", "174439.092500", "174440.582500", "174442.072500", "174443.562500", "174445.052500", "174446.542500", "174448.032500", "174449.522500", "174451.012500", "174452.502500", "174453.992500", "174455.482500", "174456.972500", "174458.462500", "174459.952500", "174501.442500", "174502.932500", "174504.422500", "174505.912500", "174507.402500", "174508.892500", "174510.382500", "174511.872500", "174513.362500", "174514.852500", "174516.342500", "174517.832500", "174519.322500", "174520.812500", "174522.302500", "174523.792500", "174525.282500", "174526.772500", "174528.262500", "174529.752500", "174531.242500", "174532.732500", "174534.222500", "174535.712500", "174537.202500", "174538.692500", "174540.182500", "174541.672500", "174543.162500", "174544.652500", "174546.142500", "174547.632500", "174549.122500", "174550.612500", "174552.102500", "174553.592500", "174555.082500", "174556.572500", "174558.062500", "174559.552500", "174601.042500", "174602.532500", "174604.022500", "174605.512500", "174607.002500", "174608.492500", "174609.982500", "174611.472500", "174612.962500", "174614.452500", "174615.942500", "174617.432500", "174618.922500", "174620.412500", "174621.902500", "174623.392500", "174624.882500", "174626.372500", "174627.862500", "174629.352500", "174630.842500", "174632.332500", "174633.822500", "174635.312500", "174636.802500", "174638.292500", "174639.782500", "174641.272500", "174642.762500", "174644.252500", "174645.742500", "174647.232500", "174648.722500", "174650.212500", "174651.702500", "174653.192500", "174654.682500", "174656.172500", "174657.662500", "174659.152500", "174700.642500", "174702.132500", "174703.622500", "174705.112500", "174706.602500", "174708.092500", "174709.582500", "174711.072500", "174712.562500", "174714.052500", "174715.542500", "174717.032500", "174718.522500", "174720.012500", "174721.502500", "174722.992500", "174724.482500", "174725.972500", "174727.462500", "174728.952500", "174730.442500", "174731.932500", "174733.422500", "174734.912500", "174736.402500", "174737.892500", "174739.382500", "174740.872500", "174742.362500", "174743.852500", "174745.342500", "174746.832500", "174748.322500", "174749.812500", "174751.302500", "174752.792500", "174754.282500", "174755.772500", "174757.262500", "174758.752500", "174800.242500", "174801.732500", "174803.222500", "174804.712500", "174806.202500", "174807.692500", "174809.182500", "174810.672500", "174812.162500", "174813.652500", "174815.142500", "174816.632500", "174818.122500", "174819.612500", "174821.102500", "174822.592500", "174824.082500", "174825.572500", "174827.062500", "174828.552500"],
      "ContentTime": ["173844.252000", "173844.255000", "173844.258000", "173844.261000", "173844.268000", "173844.278000", "173844.281000", "173844.283000", "173844.286000", "173844.289000", "173844.292000", "173844.295000", "173844.298000", "173844.301000", "173844.304000", "173844.306000", "173844.309000", "173844.312000", "173844.315000", "173844.318000", "173844.321000", "173844.324000", "173844.327000", "173844.329000", "173844.332000", "173844.345000", "173844.348000", "173844.351000", "173844.354000", "173844.357000", "173844.360000", "173844.362000", "173844.365000", "173844.368000", "173844.380000", "173844.383000", "173904.210000", "173904.213000", "173904.216000", "173904.219000", "173904.222000", "173904.225000", "173904.228000", "173904.231000", "173904.234000", "173904.237000", "173904.239000", "173904.242000", "173904.254000", "173904.257000", "173904.260000", "173904.263000", "173904.266000", "173904.269000", "173904.271000", "173904.274000", "173924.210000", "173924.213000", "173924.216000", "173924.219000", "173924.222000", "173924.224000", "173924.227000", "173924.230000", "173924.233000", "173924.236000", "173924.239000", "173924.242000", "173924.245000", "173924.247000", "173924.250000", "173924.253000", "173924.256000", "173924.259000", "173924.262000", "173924.265000", "173944.209000", "173944.212000", "173944.215000", "173944.218000", "173944.221000", "173944.227000", "173944.230000", "173944.233000", "173944.236000", "173944.239000", "173944.241000", "173944.244000", "173944.247000", "173944.250000", "173944.253000", "173944.256000", "173944.259000", "173944.262000", "173944.265000", "173944.268000", "174024.209000", "174024.212000", "174024.215000", "174024.218000", "174024.221000", "174024.224000", "174024.226000", "174024.229000", "174024.232000", "174024.235000", "174024.238000", "174024.241000", "174024.244000", "174024.247000", "174024.249000", "174024.252000", "174024.255000", "174024.258000", "174024.261000", "174024.264000", "174024.267000", "174024.270000", "174024.273000", "174024.275000", "174024.278000", "174024.281000", "174024.284000", "174024.287000", "174024.290000", "174024.293000", "174044.209000", "174044.212000", "174044.215000", "174044.218000", "174044.221000", "174044.224000", "174044.227000", "174044.230000", "174044.232000", "174044.235000", "174044.238000", "174044.241000", "174044.244000", "174044.247000", "174124.210000", "174124.213000", "174124.216000", "174124.219000", "174124.222000", "174124.225000", "174124.228000", "174124.231000", "174124.233000", "174124.236000", "174124.239000", "174124.242000", "174124.245000", "174124.248000", "174124.251000", "174124.254000", "174124.257000", "174124.260000", "174124.263000", "174124.265000", "174124.268000", "174124.271000", "174124.274000", "174124.277000", "174124.280000", "174124.283000", "174124.286000", "174204.209000", "174204.212000", "174204.215000", "174204.218000", "174204.221000", "174204.224000", "174204.227000", "174204.230000", "174204.233000", "174204.235000", "174204.238000", "174204.241000", "174204.244000", "174204.247000", "174204.250000", "174204.261000", "174204.264000", "174204.267000", "174204.270000", "174204.273000", "174204.277000", "174204.280000", "174204.283000", "174204.286000", "174204.289000", "174204.292000", "174244.209000", "174244.212000", "174244.215000", "174244.218000", "174244.221000", "174244.224000", "174244.227000", "174244.230000", "174244.233000", "174244.235000", "174244.238000", "174244.241000", "174244.244000", "174244.247000", "174244.250000", "174244.253000", "174244.263000", "174244.266000", "174244.268000", "174244.272000", "174244.274000", "174244.277000", "174244.280000", "174244.283000", "174244.286000", "174244.289000", "174244.292000", "174324.210000", "174324.213000", "174324.216000", "174324.219000", "174324.222000", "174324.225000", "174324.228000", "174324.231000", "174324.234000", "174324.236000", "174324.239000", "174324.242000", "174324.245000", "174324.248000", "174324.251000", "174324.254000", "174324.257000", "174324.259000", "174324.263000", "174324.265000", "174324.268000", "174324.271000", "174324.274000", "174324.277000", "174324.280000", "174324.283000", "174324.286000", "174404.210000", "174404.213000", "174404.216000", "174404.219000", "174404.222000", "174404.225000", "174404.228000", "174404.231000", "174404.233000", "174404.236000", "174404.239000", "174404.242000", "174404.245000", "174404.248000", "174404.251000", "174404.254000", "174404.257000", "174404.260000", "174404.263000", "174404.265000", "174404.268000", "174404.271000", "174404.274000", "174404.277000", "174404.280000", "174404.283000", "174404.286000", "174444.209000", "174444.212000", "174444.215000", "174444.218000", "174444.221000", "174444.224000", "174444.226000", "174444.229000", "174444.232000", "174444.235000", "174444.238000", "174444.241000", "174444.244000", "174444.247000", "174444.250000", "174444.252000", "174444.255000", "174444.258000", "174444.261000", "174444.264000", "174444.267000", "174444.270000", "174444.273000", "174444.276000", "174444.279000", "174444.281000", "174444.284000", "174524.209000", "174524.212000", "174524.215000", "174524.218000", "174524.221000", "174524.224000", "174524.226000", "174524.230000", "174524.232000", "174524.235000", "174524.238000", "174524.241000", "174524.244000", "174524.247000", "174524.250000", "174524.253000", "174524.256000", "174524.259000", "174524.261000", "174524.264000", "174524.267000", "174524.270000", "174524.273000", "174524.276000", "174524.279000", "174524.282000", "174524.285000", "174604.210000", "174604.213000", "174604.220000", "174604.223000", "174604.226000", "174604.229000", "174604.232000", "174604.235000", "174604.237000", "174604.240000", "174604.243000", "174604.246000", "174604.249000", "174604.252000", "174604.255000", "174604.258000", "174604.261000", "174604.263000", "174604.266000", "174604.269000", "174604.272000", "174604.275000", "174604.278000", "174604.281000", "174604.284000", "174604.286000", "174604.289000", "174644.209000", "174644.212000", "174644.215000", "174644.218000", "174644.221000", "174644.224000", "174644.226000", "174644.229000", "174644.232000", "174644.235000", "174644.238000", "174644.241000", "174644.244000", "174644.247000", "174644.250000", "174644.253000", "174644.255000", "174644.259000", "174644.262000", "174644.265000", "174644.268000", "174644.271000", "174644.274000", "174644.277000", "174644.280000", "174644.282000", "174724.209000", "174724.212000", "174724.215000", "174724.218000", "174724.221000", "174724.224000", "174724.227000", "174724.230000", "174724.232000", "174724.235000", "174724.238000", "174724.241000", "174724.244000", "174724.247000", "174724.250000", "174724.253000", "174724.256000", "174724.259000", "174724.261000", "174724.264000", "174724.267000", "174724.270000", "174724.273000", "174724.276000", "174724.287000", "174724.290000", "174724.293000", "174804.210000", "174804.213000", "174804.216000", "174804.219000", "174804.222000", "174804.225000", "174804.228000", "174804.230000", "174804.233000", "174804.236000", "174804.239000", "174804.242000", "174804.245000", "174804.248000", "174804.251000", "174804.254000", "174804.256000", "174804.259000", "174804.262000", "174804.265000", "174804.268000", "174804.271000", "174804.274000", "174804.277000", "174804.280000", "174804.283000", "174804.286000", "174830.225000", "174830.228000", "174830.231000", "174830.234000", "174830.237000", "174830.240000", "174830.243000", "174830.246000", "174830.248000", "174830.251000", "174830.254000", "174830.257000", "174830.260000", "174830.263000", "174830.266000", "174830.269000", "174830.272000", "174830.275000"],
